time,class,channel1,channel2,channel3,channel4,channel5,channel6,channel7,channel8
0.0,wrist_extension,0.3519361137408882,0.3904715650484605,0.34606011117091195,0.16870729905354517,0.31506906260598333,0.20735021967055717,0.3840381203225115,0.3654072333174567
0.01001001001001001,open_palm,0.5214775962112408,0.2272235064988329,0.4662542516557865,0.4050763717274628,0.4041246484499443,0.5289449464114286,0.24427373909788266,0.08043550703525448
0.02002002002002002,wrist_flexion,0.3257887687036477,0.4652483414771869,0.6057372318507028,0.4550398936292658,0.3612803940746424,0.40561866977123634,0.3493471952279939,0.17452407294054673
0.03003003003003003,wrist_flexion,0.6823640980654331,0.49010282891216034,0.5428610098637638,0.455849292249857,0.44208179768971245,0.4444966319185396,0.6250091067764215,0.571591840903643
0.04004004004004004,fist,0.4198660384891005,0.5137338110886724,0.47171422399771695,0.5287915391262716,0.34186672184535455,0.5785499630410844,0.42224385663400366,0.34854218820782856
0.050050050050050046,wrist_extension,0.26255803941327716,0.21411747341591916,0.1963198673345367,0.335984601275563,0.21406875439542228,0.09768223514647367,0.48559587556262346,0.17604054965347657
0.06006006006006006,wrist_flexion,0.3447849568339756,0.35806656350304045,0.6331421459371211,0.367567898849667,0.39456175954751305,0.31620285155191946,0.363198848620765,0.3724328850978631
0.07007007007007007,open_palm,0.3662622794758999,0.5356295153555054,0.6471435286882828,0.44336466092910115,0.5182616283234622,0.1683461950604187,0.41368541005933906,0.5882706837961924
0.08008008008008008,rest,-0.0912157534793906,-0.03816187211077271,0.06359412589700415,-0.03867338273723976,-0.0854316162848957,0.23873615156624953,0.03842482831220139,-0.03606767950350917
0.09009009009009009,wrist_flexion,0.13506011439206103,0.36047694940764224,0.44163955674444744,0.5428591275580124,0.10368162695232097,0.48788957599732263,0.2932049148886127,0.21108915060901443
0.10010010010010009,fist,0.4727361500164149,0.5811497460429319,0.5698907235936359,0.6612300274974644,0.7072813482704781,0.5211098359624825,0.5952710072462263,0.6163793430917546
0.11011011011011011,wrist_flexion,0.28049364551230116,0.45336048331731865,0.7123097434911019,0.5086387561861041,0.7526004737399521,0.2933004128709083,0.33748365094503824,0.5087573543745075
0.12012012012012012,wrist_flexion,0.33362808498329904,0.7424122286513034,0.4744802537898248,0.3448856016363244,0.28814422486923963,0.6967328741406223,0.428943231797755,0.29489833779975844
0.13013013013013014,wrist_extension,0.41138457057263456,0.13497112495152555,0.4768952336764199,0.8168333068675435,0.3742865767661798,0.31445112729686653,0.3773437250769625,0.2905069000844377
0.14014014014014015,wrist_extension,0.0851980400263258,0.6244528297272782,0.27409227347063697,0.3633537133468615,0.29677412312004703,0.2770845153297299,0.3450833735808811,0.5313639156848935
0.15015015015015015,open_palm,0.3113563068299032,0.23977446451363954,0.35764139314543947,0.22758538535879722,0.4896334328598663,0.19900363753842895,0.3226533131222147,0.36078264723264886
0.16016016016016016,wrist_extension,0.11796400889020031,0.2897706009051111,0.5627800894065735,0.46174078996344753,0.4292677713451421,0.3748467994437781,0.38052821966145256,0.4409542245106094
0.17017017017017017,wrist_extension,0.3103161981133603,0.41697565017552873,0.4755292810771825,0.539543051645932,0.5750416653091175,0.5175767401877924,0.3721772866538361,0.440705919329168
0.18018018018018017,rest,0.008483112068859438,-0.019627596211920978,0.071884633430882,-0.058719320216176686,0.11348410300706738,0.041887837448120566,0.06907003128026142,0.09177881411968425
0.19019019019019018,wrist_extension,0.37040654221463476,0.21524575740007867,0.42013869714764907,0.19939158603434937,0.30214634911025606,0.23883672586502777,0.2650802289155158,0.29434663843689274
0.20020020020020018,wrist_extension,0.5263185130291369,0.4461956107699689,0.337375354522611,0.3029078750854862,0.5242340134641578,0.3295120368176864,0.44562575179698866,0.107617611703948
0.21021021021021022,rest,0.0006525306481202344,0.03645565314121145,0.05047040907971154,-0.017007195627628074,-0.07199550038711319,0.018765366163070965,-0.058663820975306015,-0.17635519743611217
0.22022022022022023,wrist_extension,0.5111907819281006,0.25632458510380574,0.28546559811345873,0.38332908455743564,0.4439825429570725,0.3581374672776856,0.26357759077697396,0.452133176116842
0.23023023023023023,open_palm,0.4904778051117269,0.2819490721158167,0.43336225941761747,-0.020341079781456745,0.4107217834220914,0.450305568718135,0.17823417513448434,0.35974948078065716
0.24024024024024024,fist,0.36297130059070903,0.6534076227557316,0.41979444680691397,0.5328057935053525,0.48509758171912254,0.31777336995053884,0.42636464546368824,0.4847351776787858
0.2502502502502503,wrist_flexion,0.485280671547667,0.3716084395453695,0.38131960454113667,0.48574942986310243,0.4225452543342441,0.42902799519075624,0.5717339532243977,0.27224168847752933
0.2602602602602603,wrist_flexion,0.23098353050048392,0.28012356628244217,0.6222196688424169,0.4702902408011054,0.5189462841707658,0.48143024754375296,0.3770903921906674,0.24469237233267366
0.2702702702702703,wrist_flexion,0.14382769103506585,0.149463825921271,0.5424910386838907,0.5191571111772767,0.43887771290377114,0.35259455938573403,0.4008871340519454,0.38597076051103435
0.2802802802802803,rest,0.08862685542589209,0.06308836809006843,0.1098737142506501,0.11197716378614,-0.006892295473002365,-0.14822176768889167,-0.09176475861380366,-0.14307921509638513
0.2902902902902903,rest,-0.0974126054021662,0.06931678251234384,-0.22474156779240206,-0.069662137724318,-0.10579560581626164,-0.03247952448679887,0.0072524050501221295,0.02557174929294513
0.3003003003003003,wrist_extension,0.24417522646715745,0.1112551659066564,0.2830313087216197,0.17339543457332424,0.37300090387301166,0.47820286048126576,0.5336125160482332,0.38872004605816735
0.3103103103103103,wrist_extension,0.348271292337088,0.0972009166004412,0.36446512253610625,0.41078988411446243,0.11362409223670814,0.5371048789600685,0.3163066858790968,0.2076855453249618
0.3203203203203203,wrist_extension,0.5269452027495701,0.4397405975640338,0.2773910079459788,0.30743333919852817,0.24924535436127482,0.3732625482552646,0.5558635849539817,0.36543383211628305
0.3303303303303303,wrist_extension,0.5145793601073845,0.31150149522416937,0.25910491681347775,0.606772468387952,0.4344398884203851,0.40186269024903415,0.16825192219591611,0.495293581337631
0.34034034034034033,wrist_extension,0.4501446617833273,0.2729242272243346,0.06724359869289678,0.25569106483330206,0.34843315321474383,0.45211925909467104,0.2996781187700582,0.27776627704205914
0.35035035035035034,wrist_extension,0.30528856460462483,0.5833436266126295,0.06554494230940298,0.39602842287530476,0.3605241216632443,0.3919502676479177,0.22264240366102928,0.5624435834730754
0.36036036036036034,rest,0.04416577432035187,-0.19876228664991757,0.17164428085074146,-0.0005925044361308382,-0.1478430807005156,0.05362482122989446,-0.11794902869396306,-0.03187843024768567
0.37037037037037035,wrist_extension,0.4683409376626868,0.3023550647691853,0.41622509710811567,0.3260766007386659,0.4724302099075426,0.5895486253510971,0.8037010389019725,0.3625549445520657
0.38038038038038036,wrist_extension,0.31304848344432046,0.29541015749529664,0.49549285599998005,0.1473712324184672,0.1671404973209166,0.17666969811812736,0.4104540247325006,0.6477774542392822
0.39039039039039036,wrist_flexion,0.37496794590814536,0.05826198829840262,0.4932152514712794,0.4847624446510957,0.36163993273890777,0.566032920249305,-0.06547372241943028,0.6162296533328249
0.40040040040040037,open_palm,0.41086960937239136,0.3102001900927638,0.3848103484779474,0.5307075981506439,0.07995363271544648,0.2560017060475999,0.18559819599060481,0.5051203277316824
0.41041041041041043,wrist_flexion,0.5005367672540535,0.35559559110268024,0.278959048688927,0.4205018186596867,0.30692296619740417,0.10966919101802441,-0.009573730191590718,0.3822882840846543
0.42042042042042044,fist,0.5190822925994207,0.7165867601128372,0.5599567574053684,0.5362102823893109,0.6673658864568266,0.5815667460224049,0.557271350598733,0.430227678603783
0.43043043043043044,open_palm,0.03038978612945624,0.40559770132979556,0.4329951595654942,0.3148150680144397,0.44079070507855794,0.09446829662877282,0.05791635607093615,0.2636033073686681
0.44044044044044045,rest,-0.018312196241172272,0.07303684517925067,-0.2093021201573235,-0.24499308327886038,0.07738682715540235,0.0997758743073057,0.03368922628522412,0.058537023958605994
0.45045045045045046,wrist_extension,0.43737640617440904,0.3553380871792583,0.579482335529782,0.5263249915703337,0.2838259973303324,0.26285373746795715,0.4303833799256153,0.43527110338163844
0.46046046046046046,open_palm,0.23525883369876807,0.23785190572164655,0.22194025853633081,0.48350127323626724,0.22376893710558177,0.18711118746258004,0.34499908417526826,0.12521217745173485
0.47047047047047047,wrist_flexion,0.4764624317906568,0.5869334704567186,0.11667923384693982,0.7272264686449785,0.2506061794058378,0.11988859062342644,0.752447944226921,0.4238501058933358
0.4804804804804805,open_palm,0.2137060489133142,0.412998920314792,0.17039482046761956,0.4297414616297458,0.30735415196359417,0.2696164992603924,0.26589932344077344,0.07546522758988083
0.4904904904904905,rest,-0.06742382340866447,0.0012974683928077546,-0.043075692828988495,0.07636240537499042,-0.07867155805423498,0.06131311686435775,0.02867148275675125,-0.06847076070907533
0.5005005005005005,fist,0.7154536222743535,0.6487757953371551,0.5934860224538867,0.5851209007780919,0.4320342029551292,0.14988863213500203,0.5556509373764948,0.3209810443797096
0.5105105105105106,fist,0.3524393258978327,0.5200174288603324,0.5991360115385008,0.37915343151072256,0.48929740332112587,0.6786077916234087,0.44455698150649386,0.5141013423327836
0.5205205205205206,rest,-0.060187954090683574,-0.15746084362698853,0.12693022745963273,0.08723737582975165,0.029499567529182393,-0.06389461289097492,-0.1183752116670668,-0.01085336997370092
0.5305305305305306,wrist_flexion,0.25439923711103146,0.5185382951557737,0.25557006833316037,0.36724171852520315,0.37488692279388885,0.42934721277046556,0.6762341021577445,0.31705842613672763
0.5405405405405406,rest,0.09475683148151273,-0.12165543565659193,0.14785185474907683,0.14321625005278718,-0.13863376117583184,0.0036799578108344016,-0.03336477391930032,0.10109643520732373
0.5505505505505506,open_palm,0.33442796899167965,0.2638974629903669,0.3303065155551037,0.1979433713119658,0.2766361754643192,0.19618515126108918,0.35723341812718235,0.400831332201717
0.5605605605605606,wrist_extension,0.2178945698355495,0.07424214159975925,0.21764973411186195,0.34028629972314656,0.29435647081986943,0.31111875379656123,0.40351917595886433,0.17803018123738076
0.5705705705705706,wrist_flexion,0.2689129402852403,0.17601800462701905,0.39721555397178776,0.2912743075781398,0.2074990782386377,0.4678995615991759,0.4369398280225142,0.22335110683895706
0.5805805805805806,fist,0.5640080932178906,0.3203064069867976,0.36022843900412455,0.44994714332886077,0.5098262178719724,0.6842484767314236,0.6027866829166004,0.5518671097178538
0.5905905905905906,rest,0.01860332228418197,0.041869647023672865,-0.027640661279506974,0.010986836309919604,-0.10415413641797129,0.08831855933001491,0.09537256954994679,-0.14267320210306558
0.6006006006006006,open_palm,0.3040382763903961,0.3466160005525583,0.5874999230379717,0.3565315391500147,0.3938589656142803,0.5309768163394755,0.2647865328872383,0.5309299999418968
0.6106106106106106,open_palm,0.2558293765200131,0.11572589426178204,0.18960891953925824,0.368864876780581,0.3739312898140841,0.5643297429104835,0.2674487443149657,0.32631272067673617
0.6206206206206206,wrist_flexion,0.5867512575348621,0.5088205048099839,0.38956404814386186,0.5052111008256537,0.3946763846502539,0.39270403121778763,0.19958780740576815,0.3098098747106193
0.6306306306306306,open_palm,0.22427380985192277,0.3191768589136297,0.45378345277741683,0.3791467981056459,0.32545982681805324,0.23786032022694947,0.3949294102098741,0.3245513958434623
0.6406406406406406,wrist_flexion,0.29381699437023656,0.42095744952631736,0.44304194090791066,0.3073137193494597,0.330552629633182,0.24492812061661773,0.35854337212105464,0.45172739514737204
0.6506506506506506,fist,0.41995541041064693,0.4352721686124202,0.7968151912414876,0.5448438713352215,0.6194110441815803,0.5729476303625972,0.42947605827604446,0.5767351124737672
0.6606606606606606,rest,0.08405270486976842,0.07338840674686435,-0.05624310402526407,-0.051199370228899505,0.1304464780141215,-0.1344514744689017,-0.112719398641596,-0.01663959173164674
0.6706706706706707,rest,-0.03268115458492213,-0.2660377935322777,-0.18471242084156092,0.04915109086375171,0.029673582477952484,-0.02196286066254835,0.06764813569313498,-0.11126312941921242
0.6806806806806807,fist,0.12381880033795534,0.48691332614004007,0.6925042098357094,0.4684303395501188,0.606633809176523,0.3787832193635613,0.38164532326967476,0.5375439680841726
0.6906906906906907,rest,0.11783938707025654,0.04861823129382392,-0.06908700671386007,0.10019042090251162,-0.193787293949598,0.26981865736008087,0.014923592304103742,0.11156023977275811
0.7007007007007007,wrist_flexion,0.24610059304850956,0.46636440684586716,0.47009222243222026,0.17823628356771165,0.24625138591599022,0.5058371269846134,0.5136708530692258,0.2126468182938576
0.7107107107107107,open_palm,0.40303462620795916,0.2160637164887651,0.5435791539908076,0.1746882299499542,0.3836603033050682,0.25931144134833234,0.3936939179522977,0.14433392002026665
0.7207207207207207,rest,0.2700175213241179,0.04339081731584837,0.18132159486539026,-0.1773649467573621,0.05321573377374561,0.10681457864993567,0.20496915928853776,-0.0698525362511737
0.7307307307307307,wrist_extension,0.1673906917482847,0.4436766906441993,0.3234566479274229,0.45851372231213033,0.32994606438968904,0.37881105809044147,0.46501551101928196,0.4399795670500991
0.7407407407407407,fist,0.558389356560469,0.6395287056718921,0.5193343111228066,0.5882530898175674,0.2981622418637096,0.7786375553620232,0.34797268833587475,0.18877092608407325
0.7507507507507507,wrist_flexion,0.5826610842212936,0.26250361347152007,0.3905995460429285,0.2068089102022325,0.2929267127496488,0.11447596371192659,0.2696780934468031,0.44687733802677565
0.7607607607607607,wrist_extension,0.4267608782077319,0.41228006365367187,0.46320973336601085,0.3613353207631604,0.5125200790941967,0.35508074600917844,0.40961453840884904,0.3748276951930064
0.7707707707707707,fist,0.6307097223113663,0.6914521442106094,0.39953446462420966,0.5120012291242835,0.45983169388692224,0.45494122242908486,0.21473058083314073,0.7230288098128261
0.7807807807807807,rest,0.05068260785446099,0.0518752319889222,-0.038674280471290706,0.0968908613033739,-0.07904912323340471,0.017373276570312953,-0.048792861285921744,0.12880307243793276
0.7907907907907907,fist,0.30237600555199073,0.35987536793739944,0.4730435214047663,0.42353728917059263,0.45483941045301257,0.5809185467655738,0.5422861324955262,0.7470526575961218
0.8008008008008007,rest,-0.15352059966429027,-0.07933494808342943,0.008003750282786421,0.017889215231097357,0.019557919763336866,-0.065543704156253,0.1787553170728524,-0.11390386496861955
0.8108108108108109,wrist_extension,0.36965014972857074,0.4310473846003826,0.30174337122148936,0.2660007232321782,0.29048928541555,0.6372348190949065,0.5384970718570428,0.30595691289338034
0.8208208208208209,wrist_extension,0.22695461592107852,0.2517540793101423,0.5604848173381148,0.28482946951319277,0.28707034941398446,0.28377777096437196,0.19699639115338585,0.37759852208460387
0.8308308308308309,fist,0.4795379127898269,0.5536794192474267,0.48414168029517274,0.6576061978180261,0.5674980112949691,0.26195084134139723,0.5300069133424855,0.34970801969851206
0.8408408408408409,wrist_flexion,0.5577628131798691,0.5570469996847921,0.29620540995600164,0.46907078179188655,0.5151121255389313,0.358666688039187,0.4325752004696929,0.48176754581022674
0.8508508508508509,open_palm,0.325102250411617,0.4783827397380536,0.17394326445129582,0.28316499025437525,0.1801480237108572,0.40864958256380823,0.2843425214613351,0.07951833866985981
0.8608608608608609,fist,0.3935265462002288,0.2671629373696218,0.41568636394291664,0.3093815822987539,0.7031039266846768,0.4737800249012576,0.8508706842864109,0.6770585258349673
0.8708708708708709,rest,0.028374884935444634,0.20289584014377554,0.05130318416095954,-0.1216028760017584,0.005985081895576619,-0.13111587037713962,-0.02681652119460548,-0.06684515159349051
0.8808808808808809,wrist_extension,0.4362574429453122,0.5950197545159878,0.5191379810270929,0.21028019980403842,0.215773468103986,0.31406282446689476,0.5322691638192228,0.12287343109476986
0.8908908908908909,wrist_extension,0.09014717941905537,0.28868906454580207,0.28960289612277434,0.4998780846299483,0.4514192045215361,0.43995740628492297,0.5340953814262822,0.2593427010896337
0.9009009009009009,wrist_flexion,0.2862643677946505,0.7974370367425455,0.23967231090508673,0.5693510545739138,0.24327453099663315,0.2901450177647694,0.4074895715993809,0.4014302508857342
0.9109109109109109,fist,0.4086511982843949,0.48841717059449474,0.1702278332878617,0.40543152130372084,0.3874116362146223,0.5498386961028217,0.7900350517187323,0.3147339374730487
0.9209209209209209,wrist_flexion,0.5470673093589484,0.2459682827598808,0.29101825419942284,0.49652156685156795,0.6375763395517862,0.3117797084437416,0.5421906995587971,0.31831426261983503
0.9309309309309309,rest,-0.07088284933248092,-0.12301890556909623,0.05809683665858213,0.03561632050169568,-0.1631021013485436,-0.0966072406351271,-0.19200218345134068,-0.11663513113484128
0.9409409409409409,wrist_flexion,0.1931148867483938,0.4384831041114888,0.15054251643056424,0.10595955085973555,0.35596494012839885,0.34327366235590023,0.49167145787538646,0.40068540652147117
0.950950950950951,wrist_extension,0.2471629276182365,0.23457870205026618,0.359074281168289,0.568597166253067,-0.017979188013375363,0.6403905819939448,0.37499947071577955,0.25774015284254476
0.960960960960961,rest,0.193832840769622,-0.04252055533323495,-0.026024343262929656,0.16392810590657556,-0.08485245074515667,-0.11562777328378782,-0.05033791617623258,0.026419772775175234
0.970970970970971,fist,0.4430992334098516,0.6691961540465621,0.22095637580330774,0.571426772126378,0.30644910574815004,0.500188862575417,0.4347153045531976,0.5239906558924237
0.980980980980981,wrist_extension,0.08862519649802253,0.2002032075038454,0.3690214439006544,0.43818112847403157,0.25478791606856654,0.456835627069751,0.23692551642669687,0.3315562143771599
0.990990990990991,rest,-0.05391339101024454,0.031978240317728696,0.12958235138777593,0.03756532730771764,-0.1418759809562337,-0.009381262797532921,-0.06358045375161062,-0.15859684997808
1.001001001001001,wrist_extension,0.4415384193042492,0.5335759440629355,0.41561030116236564,0.3538429240939617,0.20552156515417563,0.3671179360620425,0.19893610175771098,0.2077389841399615
1.011011011011011,wrist_extension,0.4132066595382998,0.41876170377092403,0.2780040984412214,0.2691131256395285,0.3132964638095273,0.42841502564555484,0.18499989061964275,0.42114451055902774
1.021021021021021,fist,0.5667910057204399,0.3892010650634712,0.7400467109536856,0.6848908077476954,0.3720855836565875,0.25988836464682746,0.6739564130737259,0.45865854334128997
1.031031031031031,rest,0.03929265178969544,0.1803242660715179,-0.08077776242261249,0.14017161354839539,0.21213562179990011,0.041023366839847,0.11824753670827343,0.08057793701285748
1.0410410410410411,wrist_flexion,0.31753719072518044,0.5530700082261035,0.38080722959495006,0.4489766693137476,0.1973557121702965,0.31300261765299314,0.38379818247284614,0.3040814701065824
1.0510510510510511,wrist_extension,0.258795485397079,0.4751362668009615,0.5713735953561261,0.22557308840704712,0.08126701877419672,0.31051755394816793,0.3704971038391044,0.31739400184060007
1.0610610610610611,rest,0.04808055805622838,0.06464240141850261,-0.06555918258116468,-0.21798912847543359,0.07139298029517656,-0.07295252102227583,-0.1528751227939188,-0.004547852440842592
1.0710710710710711,rest,0.09533295631316613,0.056549829810077716,0.19132886872462979,-0.09440467581046746,0.08739203594031364,-0.0386827311911589,-0.015148401753558872,0.045791807515665195
1.0810810810810811,rest,0.07019325243066948,0.019406991911698788,0.09697233100904046,-0.06801225806679723,0.06880670629582707,-0.1795918173806916,-0.014861249037847402,0.040638683175335116
1.0910910910910911,wrist_extension,0.4205818132308119,0.3994180495222736,0.3229352001311636,0.3245653009975742,0.42332676728505136,0.42180108843850994,0.32549008307148186,0.2687842736023226
1.1011011011011012,wrist_flexion,0.21951328358894295,0.4193982952351104,0.23763956023693622,0.0574831204747045,0.5719936006370936,0.6304619058007835,0.4969022098969693,0.4932340373661883
1.1111111111111112,wrist_flexion,0.33321156666397267,0.30426371557220205,0.6237088316328319,0.20131946655566463,0.5536759597095812,0.36564449656045883,0.5471206334659352,0.44941988480605705
1.1211211211211212,rest,-0.07889997621821393,0.005775082567587019,0.07369762196673925,0.038902644307167784,0.08332063935068966,-0.004172442262360452,0.16452141419236718,0.07444139831058143
1.1311311311311312,wrist_flexion,0.39201838987035775,0.5371418923608495,0.38979675813211323,0.33691063173889996,0.5030443869093634,0.21460678694840457,0.38429211452887135,0.25034322751388155
1.1411411411411412,open_palm,0.3154742160365056,0.30117511869887276,0.08704802550022889,0.38006271901649596,0.2674503070957854,0.35930618760561017,0.3613508675523009,0.40391929478337163
1.1511511511511512,rest,-0.01636880509789728,-0.06540342569777235,-0.020207018618627465,0.002152939688007643,0.10712258838784638,0.09437511350343529,0.07258909691608244,-0.030942704298189506
1.1611611611611612,open_palm,0.3596480903944426,0.2838680324081139,0.3827470420581264,0.23300702773204515,0.26242007156650193,0.3677998182507662,0.390884628867611,0.04586661177050311
1.1711711711711712,fist,0.6234791730031781,0.14784944482415865,0.5502191874512299,0.5099450828301566,0.4650917148419168,0.5186250778460106,0.5311906779489599,0.674632916937494
1.1811811811811812,wrist_extension,0.49994944130644825,0.4863478987714481,0.5196156329174194,0.4732367198335815,0.36685880928032555,0.3431194551172372,0.14677237660648254,0.3029230762412457
1.1911911911911912,wrist_flexion,0.4424525331835721,0.33935880581529654,0.3251396981439358,0.2520258140855802,0.2123909692051862,0.591301887125118,0.3916493854493665,0.35231864523369155
1.2012012012012012,rest,0.1658319090747783,0.037147874121787085,-0.049215237786632886,-0.08875547716012011,0.009267720386216134,0.022685226306946606,0.017471772186115116,-0.09795701729587536
1.2112112112112112,wrist_flexion,0.48874145958386234,0.2257124988350344,0.36523291284609016,0.30810302621270924,0.5202721614669017,0.17342337280919345,0.45508603062091285,0.5541988731898404
1.2212212212212212,fist,0.6085555180788202,0.5336782321809145,0.5218257256364288,0.6018965724750229,0.436648081968498,0.49026262733943904,0.5396656696833328,0.699503859684277
1.2312312312312312,rest,0.0768482212069577,-0.06173820799669714,0.06240768875891119,-0.10532698608314324,-0.04457393741667864,0.04047592872083132,0.0813694522919946,-0.08328428479489342
1.2412412412412412,wrist_extension,0.5164905151186416,0.2957660120507144,0.34429604824712623,0.3165702974450759,0.3484527137014298,0.27910782016371594,0.3616750375459667,0.3950160020812813
1.2512512512512513,wrist_extension,0.45522093354893517,0.20687990499975123,0.3720334393911085,0.22757324987028615,0.43079288372323976,0.3447189880300709,0.2834278636546674,0.4764420622459213
1.2612612612612613,wrist_flexion,0.32230712222635244,0.5225036496387732,0.30382660314586296,0.558556100580172,0.4889358447805879,0.3319219114140716,0.5401414684301469,0.16131907154871383
1.2712712712712713,open_palm,-0.15229237269670964,0.3466293621499499,0.44662505322927254,0.11581042669185226,0.3869851947368425,0.15009437289598407,0.37147215728471866,0.37037718057605284
1.2812812812812813,rest,0.0412771586761853,-0.146108442348997,0.056548954011917986,-0.03917405953228365,-0.079974744968167,0.0713193669360726,0.08206956147410163,0.18803619152569093
1.2912912912912913,wrist_extension,0.25333823591550936,0.23408730544900475,0.1567451655606645,0.4349114162298728,0.41081518286235646,0.5336907323449191,0.4836044665666927,0.1618677598371374
1.3013013013013013,fist,0.5671213317111437,0.43069804735928746,0.5423157883250014,0.5958817552169147,0.5623752308455209,0.5893840232857036,0.4644303868736414,0.5607747867531685
1.3113113113113113,rest,0.1154070596965216,0.22314789143996153,0.040689973509511874,-0.10117615394358573,-0.22106731246365416,0.10071859806225938,0.06439438906607357,-0.10021222680146094
1.3213213213213213,wrist_flexion,0.32078059096305184,0.5017736686047869,0.30288058165010046,0.25339305610857327,0.29497376526718755,0.5246786570313478,0.4435671444382474,0.5258948850679471
1.3313313313313313,rest,-0.029858241795040194,-0.1355984331369665,-0.03645510194341859,0.11194426634703765,-0.0032559110904028725,0.10720793153281848,0.0006124359837951088,-0.04060179445051612
1.3413413413413413,wrist_extension,0.205259637467184,0.2457497529768303,0.29506528494319334,0.4643421119316908,0.34004742966008145,0.07877760574722614,0.25582764611035874,0.2882521404718826
1.3513513513513513,wrist_extension,0.44453625791603557,0.4707999370624867,0.616769471414798,0.5461683881797941,0.3252633383334323,0.3405119316957283,0.46266609152254323,0.4765677854205612
1.3613613613613613,rest,0.08367240293559412,-0.13543320335930512,0.14555355401630266,-0.03648119798739456,0.005345084022998944,-0.025381612132505216,-0.05821638960701997,-0.17243639523267562
1.3713713713713713,wrist_extension,0.13602646658949089,0.8300516145502213,0.5187451844311743,0.42072673550952705,0.514292691542208,0.2016293158443191,0.09831235254007986,0.4524045454489905
1.3813813813813813,wrist_extension,0.1240627233348037,0.3004670810705912,0.16850839380412455,0.30566758613036793,0.37093559005955123,0.4765513597342519,0.10319060733778301,0.13927159935694067
1.3913913913913913,wrist_extension,0.3839871225160084,0.32721033110699255,0.37163976207610955,0.2825821327161465,0.30196437016154537,0.26785954992094935,0.29122547937608617,0.5961709222194732
1.4014014014014013,fist,0.6953223720130698,0.26391550599374825,0.6491705657666994,0.6007086676220597,0.38207995578368587,0.2987940889953455,0.49325181342828694,0.2791915147021717
1.4114114114114114,wrist_flexion,0.5757080301251742,0.3045892648886811,0.625864076236389,0.20261247257516216,0.4301151205648817,0.28837773761288515,0.18905470490534054,0.43179117969170727
1.4214214214214214,wrist_extension,0.3243896490522515,0.22186930189379242,0.17725180524753914,0.3430338448520093,0.23988844147444435,0.5873961918472854,0.39050697292305997,0.11496396112985893
1.4314314314314314,fist,0.42614494428735566,0.46287065037829284,0.6177156796072707,0.3064954134348632,0.37244308113018343,0.3287082273623999,0.7489426403489601,0.5280129580833189
1.4414414414414414,open_palm,0.37675033469093555,0.16503587365533304,0.2721388464155697,0.6486925472914715,0.210792749538024,0.24712519289668974,0.5119824861196222,0.3260298212683739
1.4514514514514514,fist,0.48552784909542335,0.6243340464114394,0.45860732037730295,0.2759528218993089,0.5431351684696495,0.3973806199408306,0.4733013082655357,0.5073865885450954
1.4614614614614614,wrist_flexion,0.07757484520778465,0.4000674352002511,0.5236210081182887,0.36164683481468907,0.02717884637679885,0.2790888143353233,0.37418600396445056,0.4927895742009536
1.4714714714714714,wrist_extension,0.6398872722049235,0.304130372071474,0.4576550215637598,0.3417820045486513,0.6501017721381206,0.3510401982944364,0.31435650961137585,0.452610422202554
1.4814814814814814,rest,-0.09548112851042223,-0.018391353889792746,-0.02718768676889301,0.0403599196048223,0.06685624860829313,-0.020225805469183185,-0.0030363846779612063,0.05285845679004893
1.4914914914914914,rest,-0.01954204290720443,-0.1662295749166085,0.07963243001057585,0.1701627502926355,-0.0343878402621122,-0.16095846225910743,-0.07682629839651871,-0.10266740156865212
1.5015015015015014,fist,0.4542361346747576,0.4470240871403272,0.3368359193044519,0.7251455851433218,0.5708269501072397,0.3744107217000463,0.6818775714331914,0.7170835821274365
1.5115115115115114,rest,0.0939549750683335,-0.08103423475113197,0.07564625255429656,-0.05062480471745495,0.10040109828510624,0.08878807960299058,-0.09114994733443259,0.04328374314644552
1.5215215215215214,open_palm,0.32666545034033867,0.35036604664160514,0.5026485503135745,0.4385426960263167,0.3145890147587941,0.07445943029393812,0.2266789508073151,0.3193870277025106
1.5315315315315314,open_palm,0.38015017262803213,0.42173671110455674,0.522843581113704,-0.04989415383532497,0.2652295180079769,0.6331539338114742,0.350138320995746,0.4464841891755332
1.5415415415415414,wrist_extension,0.4074757540586493,0.3215274680212899,0.4554023558069228,0.4433154599723601,0.3976512647572843,0.4900681062736205,0.40702092939557655,0.20230472889138756
1.5515515515515514,open_palm,0.4511548550042915,0.6244916986801954,0.488481346178381,0.21361753181740745,0.3510772019895278,0.23846650366756067,0.29825874279037473,0.3995561367936349
1.5615615615615615,rest,0.013668942577443478,-0.13111130365136733,0.004695879703725924,-0.09429154206113088,-0.18950340348200312,-0.01972384312293235,-0.06495937021915148,0.01595052069057641
1.5715715715715715,fist,0.6485279690443035,0.4741121778559587,0.5782975817397813,0.5077230890552726,0.4263570298383158,0.7278561363397977,0.5404531993865603,0.515941405071803
1.5815815815815815,open_palm,0.2571961623789379,0.3881874034615078,0.3265921422075678,0.3944211512338526,0.2451603052891494,0.28734411702091806,0.31189900005091603,0.20582000761240699
1.5915915915915915,wrist_extension,0.14223826788975105,0.3157735869813213,0.25955860944247927,0.2707866755469671,-0.03179746095713484,0.29397631376775357,0.20425971749650781,0.47583481529687144
1.6016016016016015,open_palm,0.4688607650228418,0.17425603765167075,0.07508928366560907,0.14530997745513896,0.1879002575456475,0.499549541213375,0.17089665722060027,0.5825499519812671
1.6116116116116117,open_palm,0.1950109653850069,0.25413401387696466,0.2455967239503778,0.2205807645307783,0.38996008654281045,0.27928134752287237,0.2565296159519782,0.21682018497929706
1.6216216216216217,rest,-0.10591099117794321,-0.027745028546537605,0.050450721245333265,-0.005542293390588218,-0.11896901438598735,-0.023661977612741705,0.08918093909188844,-0.0630705152203154
1.6316316316316317,wrist_extension,0.3735173452488407,0.42869835164855197,0.32164862349215523,0.3093166739423604,0.32809150095366774,0.4576653193229858,0.3615820689465222,0.16899445820678488
1.6416416416416417,fist,0.7549306358845675,0.6138986528587942,0.5463723729097163,0.374053071475935,0.5277354466915317,0.5293716216725806,0.4279688904726963,0.46118308270667524
1.6516516516516517,wrist_flexion,0.10263519736125085,0.1900560951486735,0.40121997005552157,0.4477731773987488,0.2701822368774074,0.3490552030763935,0.5176272772035411,0.5944435978193369
1.6616616616616617,rest,-0.1469565586645898,-0.01994279338554002,0.1326222695934424,0.04032781690768612,0.18911995691508526,0.08935366566964223,-0.01163379885345794,0.10904025190191918
1.6716716716716717,fist,0.45885272833593554,0.4140202070315738,0.36504654895752786,0.7024175754576079,0.5443828826663603,0.47331082219663323,0.7219431610609447,0.5644783563520769
1.6816816816816818,wrist_flexion,0.4729821752937063,0.2597770940873186,0.5819317406418891,0.3547891861841496,0.2951227928289356,0.1874949967528421,0.4716193615140486,0.48755789983512643
1.6916916916916918,wrist_flexion,0.6904679109786982,0.46699483473252124,0.5111697050996794,0.4340110012419159,0.3538260756649492,0.32408212630379,0.579957610391179,0.4158682844690344
1.7017017017017018,rest,-0.014343693960296956,0.004668029631052104,-0.035195245371310364,0.009628633786797118,-0.04986396045778339,-0.15042755855357556,-0.08203146253511728,-0.041198455441458254
1.7117117117117118,fist,0.6434114716071005,0.3513312137549598,0.6368103322587443,0.6263135629713873,0.11252931151035883,0.3869884490194881,0.800371989565624,0.6384781737999243
1.7217217217217218,open_palm,0.20312948420011637,0.3510446999909219,0.22132742381045534,0.5318647322887626,0.45554201512214937,0.37379537917442773,0.46733256751759245,0.22656134911033393
1.7317317317317318,wrist_extension,0.433784327404568,0.7450688360565187,0.473415983942097,0.18459651138202146,0.27062060749137085,0.3199773826578963,0.08844469876444938,0.6131136900354305
1.7417417417417418,wrist_extension,0.3363358243232667,0.2933824509522117,0.34981437065318083,0.2857456732254233,0.5739918918730051,0.3197844678314349,0.37059731009758545,0.528574916748164
1.7517517517517518,fist,0.4398108633510431,0.5349762246635529,0.7311679205401915,0.43893240557446755,0.5574353812981387,0.14986526574880096,0.414926555882861,0.5064652886783596
1.7617617617617618,rest,0.04560017206182141,-0.15100094467631658,0.0031678833667479938,0.13954144258559256,0.09860966632136985,-0.1096754091307966,0.1377774297206649,0.03899147997936465
1.7717717717717718,rest,0.0055385939846186475,-0.11146887335862732,-0.1341178733382628,0.05170020036769616,-0.16864520182296472,-0.08737283648966648,0.14996053849952043,0.025498884591485874
1.7817817817817818,fist,0.49305829511359855,0.4880567805684619,0.5351387408798141,0.5326910217256283,0.42243472952557953,0.791799454527337,0.24959985793662828,0.2718498736337983
1.7917917917917918,fist,0.618026237271731,0.41985332081501225,0.49215475614256937,0.446938969709624,0.3820218353356974,0.45943755779636236,0.6575157144730185,0.4693074918657981
1.8018018018018018,rest,0.025366818227156165,-0.0018232089315759405,-0.08363762731235613,-0.022436695931370078,0.20558255673420436,0.03936891569716998,0.18847595675538723,0.059797006269074006
1.8118118118118118,wrist_flexion,0.34212920869580093,0.3754066648069749,0.18758576698380686,0.37357413300144565,0.5091274574221603,0.5475603390844727,0.4727133908816613,0.3102869027072058
1.8218218218218218,rest,-0.15512191823481092,-0.03269555920977826,0.021346820052495292,0.04290261436769909,-0.01777463195181736,-0.07671502502346288,0.0502389359571122,0.1117002774178405
1.8318318318318318,wrist_flexion,0.5498478458413766,0.5033603661295973,0.36326895442785767,0.1765717419991521,0.5091303381927382,0.6974140746984216,0.5559448011080632,0.5799456404859828
1.8418418418418419,wrist_extension,0.2954709893851196,0.21939118272210933,0.3360105939586885,0.20032722094678365,0.46661880702340164,0.2696870328258298,0.4399246564283825,0.18024807741036483
1.8518518518518519,wrist_extension,0.13373592303568177,0.207751252151729,0.5539295144874691,0.53914282287318,0.5521002597904284,0.5016807190291694,0.4961661556381991,0.2484713960126736
1.8618618618618619,fist,0.3860866163790275,0.5364334265291579,0.2928587200602501,0.45919469364048354,0.4281213332586689,0.5506153771326302,0.5207265445892243,0.5592282114290478
1.8718718718718719,open_palm,0.47704339934032514,0.021869957976849458,0.23836037983001074,0.20170120050243687,0.3700154348986745,0.23122801199444348,0.31231536813382527,0.3465078446361982
1.8818818818818819,wrist_extension,0.41458091667689845,0.6526234532700349,0.618206625429259,0.4163591495277463,0.28774981596790805,0.34104747833831367,0.3426793073344937,0.1576239270686862
1.8918918918918919,open_palm,0.14441353288002104,0.3967862574290492,0.34329667737252834,0.368142273980149,0.3745469581066938,0.11238714475435013,0.2409733899064223,0.1725157076887401
1.901901901901902,fist,0.16480075347471113,0.34114897906364405,0.46023215175863685,0.4650966883033759,0.39725714405071144,0.6030164033230491,0.4270095172268007,0.48408362138728245
1.911911911911912,open_palm,0.025493404949634327,0.10307994760426017,0.34703568413571595,0.25883242730981926,0.25214949244851326,0.5955461182870726,0.15099409806710662,0.23482306497288197
1.921921921921922,wrist_extension,0.4000084636444171,0.5145418439368272,0.24365020324502315,0.13734544980408223,0.29799540219351406,0.6766836550881752,0.2238025443465617,0.2767748555816543
1.931931931931932,fist,0.5376942815477919,0.533691239790856,0.4558519080339455,0.5897453336437883,0.4410272740062961,0.6665148741378303,0.8456487157082976,0.39660981234008214
1.941941941941942,fist,0.816588113530361,0.5345669154647159,0.5098524119287008,0.36505655178488905,0.5298421600673725,0.7136845431656573,0.7291583755691979,0.4839081913978737
1.951951951951952,open_palm,0.4551740260048976,0.309072901258095,0.36964447533702866,0.2033825740023375,0.7003857521052032,0.14029037671408806,0.4425452533196935,0.06083241495461586
1.961961961961962,wrist_flexion,0.4340581104100459,0.4060387160442836,0.38408780204190474,0.30629945770370026,0.5516434598819677,0.19174320430315492,0.4181834098874838,0.472134921300649
1.971971971971972,wrist_flexion,0.5200887051039289,0.18124091710908952,0.5245252818903079,0.47292052417084396,0.541131522194132,0.17271984568213167,0.2604455959263865,0.6328506187885865
1.981981981981982,open_palm,0.1865450335219481,0.10815683035072271,0.39363382585200507,0.22518729827834774,0.2338201840730292,0.44161301280932314,0.22476127356373748,0.4685365091253861
1.991991991991992,fist,0.5577290920926316,0.39579604985890016,0.24785515340784198,0.2575577221590333,0.5646147290757295,0.7330788289294143,0.6205772647179206,0.4090184265465869
2.002002002002002,fist,0.5986149148581564,0.4550026424488711,0.41884834456728126,0.4297877937657196,0.42221375526843324,0.5130212807057639,0.32935707178071955,0.47442935014003784
2.012012012012012,wrist_flexion,0.441293000424613,0.12255217152004068,0.32249990551456015,0.2708999105566171,0.5962708817636571,0.31706936426624005,0.6572314421042786,0.6190356923818932
2.022022022022022,wrist_extension,0.3409526613935212,0.30089216012115927,0.25794604204075045,0.27592200360477503,0.21076687486086862,0.29979050022579823,0.2883994201124197,0.2081323322997941
2.032032032032032,rest,-0.015820292459889827,-0.053658554075633774,-0.030586507090068018,0.025363662309151297,-0.051807223510770876,0.08978649198316276,0.02144400923159591,0.07668722644049403
2.042042042042042,rest,0.13388484730409364,-0.014706316722593336,-0.034692983471791415,-0.13012526124261398,0.013952116621155886,-0.00034275927143891,0.19253553581880933,0.11988907225492865
2.052052052052052,wrist_flexion,0.3166377981441472,0.31455041973737896,0.4134603101545245,0.28905772742472513,0.37957651334603804,0.40566519373607773,0.557386788206406,0.3042478298312175
2.062062062062062,wrist_flexion,0.38830021206174775,0.5922012114771839,0.7031717813230125,0.19571316513107373,0.45168753636757086,0.5500294446228191,0.6630094134242575,0.45070333526288187
2.0720720720720722,open_palm,0.42194397450965376,0.3628589826680272,0.04436647104825542,0.34795008507592967,0.2547692456488799,0.26827670897160316,0.2921163027606632,0.6435017099809012
2.0820820820820822,fist,0.2606588752983062,0.38721585318784957,0.529274886807479,0.5355770396826403,0.17191560149925275,0.47058546711841726,0.47590302919310634,0.48334027564757076
2.0920920920920922,fist,0.39005167048385586,0.543441484765825,0.5668926568704571,0.4630354083986396,0.4602384828663161,0.6314577144597909,0.6099559707103203,0.6146542105094472
2.1021021021021022,fist,0.5981579444033235,0.7520732543991272,0.49678613942489913,0.5960935299391679,0.5174684849363604,0.4088760887085308,0.5312953597401311,0.3663608900924791
2.1121121121121122,rest,-0.08677987028972112,-0.06649596139260092,-0.08807753395196329,-0.09389596879547675,-0.23152894616157413,-0.11173914760827182,-0.024107188400035073,0.0792417073706377
2.1221221221221223,fist,0.6494200195630693,0.17833149454234173,0.580835723196786,0.7107930320537799,0.6291167705030164,0.38380152034081105,0.6420867649148596,0.48792362983162096
2.1321321321321323,wrist_flexion,0.3849453075996936,0.28498455392242694,0.37823496187394845,0.48193180488071385,0.5644155619260252,0.396759214863297,0.5527521955499052,0.8312668528996365
2.1421421421421423,wrist_flexion,0.2941145758381619,0.40908317992758364,0.19297170748703235,0.3452692425754516,0.4169798449393529,0.6731345262857927,0.1497983103003062,0.18385268551271355
2.1521521521521523,rest,0.06420144318401759,0.04218562592827554,0.1122469573915355,0.052535940205112444,0.1928034838339809,0.1433719262183495,-0.006745041817368873,0.07613474616431401
2.1621621621621623,open_palm,0.23644333132967582,0.11978197296715129,0.15073691206834813,0.17568748738551035,0.14957898905769587,0.2522594411150898,0.3087602950227653,0.20063759478041485
2.1721721721721723,wrist_extension,0.34129769837146856,0.34246767219881213,0.38279171842914145,0.20880894362347577,0.15058501459911688,0.3960206429111563,0.5439680990775694,0.3004126291081991
2.1821821821821823,rest,-0.37046788142353515,-0.05766805434745992,-0.0010583039321618057,0.0315388357111286,-0.14974545793054356,0.05109880606583848,-0.2433253917984041,-0.020379745908323827
2.1921921921921923,wrist_flexion,0.3959456361987134,0.3735920283605139,0.3660888491316461,0.631060191317704,0.5070118551653795,0.4330288524757211,0.20250809070013134,0.3310662721123525
2.2022022022022023,wrist_flexion,0.290996011435407,0.39713911915793126,0.36212599749012214,0.4195763408766726,0.5774255393808475,0.26733887467220263,0.527671903048246,0.5205738355007127
2.2122122122122123,fist,0.5237889926879878,0.5723613778985005,0.563645668559588,0.6300987808141496,0.4810563857522086,0.6372682628401172,0.6482055529455081,0.6319255803582542
2.2222222222222223,wrist_extension,0.45245318651222555,0.3428192952773111,0.36180863751511994,0.3618924974023508,0.45264890718370787,0.346479975863721,0.16446767168145032,0.3247817783367703
2.2322322322322323,open_palm,0.2354989501435702,0.4124873031274738,0.03965839687265117,0.24945703733883284,0.21614532417762936,0.12765093824121107,-0.04271703408389679,0.32000901503053325
2.2422422422422423,fist,0.48238987589468996,0.43227848853707984,0.7505616695262939,0.2551741114085371,0.5505835300701813,0.6975335152500458,0.4094114178330714,0.42735204059404885
2.2522522522522523,wrist_flexion,0.4214767412430636,0.39979005879116664,0.22816594858095018,0.45834867198610824,0.5289469284813946,0.4737395769752896,0.41347880872968484,0.4373320363659501
2.2622622622622623,wrist_extension,0.530117201343546,0.3204702704894996,0.23904250173349356,0.15286627367036104,0.37990869063592214,0.26581090502718413,0.30617065602701576,0.31389419477278613
2.2722722722722724,open_palm,0.36495545915234706,0.25522147500201164,0.38825880284651626,0.28759233840236376,0.19586391954494656,0.5093936735891829,0.05804348202837584,0.11266533614224139
2.2822822822822824,fist,0.35061788709274,0.4817912877181547,0.48439108693814725,0.4418044843359267,0.786983983685081,0.858608507468535,0.40249940909224613,0.5046934564354303
2.2922922922922924,rest,0.0024730209256371167,0.07239645368203648,0.0009799447249807405,-0.02293083861714761,-0.06703682107642998,-0.030453375570346494,-0.047629325161905156,-0.024102250574981526
2.3023023023023024,rest,0.14474203832222304,-0.22412448827421075,0.016367780127609772,0.0022777932502576676,0.009133935852886238,0.22207631950639883,0.09096039637406181,0.07747653232960613
2.3123123123123124,wrist_flexion,0.42582960037292655,0.5303061558944716,0.5254541450470339,0.4731300949417339,0.4320965377982833,0.16200591060650954,0.45111193953232986,0.277001349930469
2.3223223223223224,fist,0.5576090869457315,0.46892715772451393,0.35830345448419554,0.4009888119218904,0.5267745595192621,0.547017316736258,0.6555989828698747,0.5002878632986085
2.3323323323323324,fist,0.587226072120695,0.6804632224207307,0.593851721235058,0.48360562869121687,0.5277456319985941,0.5098928502437097,0.5895813369047648,0.522685154517547
2.3423423423423424,fist,0.7765589658582078,0.3722315911111655,0.5417656295211571,0.26822909088972446,0.3979784015828842,0.30976651510248654,0.44290829594294034,0.45139859598819687
2.3523523523523524,fist,0.245587793224282,0.5766102244032293,0.48943493498159635,0.37831837682720587,0.37400435959029343,0.4432844825218998,0.45880923502566073,0.5502534006231538
2.3623623623623624,fist,0.5247344967303184,0.5976103666096345,0.6769660919097987,0.33686422267717975,0.36101964419010335,0.5265225504101919,0.4000170734612468,0.5897488267332407
2.3723723723723724,wrist_extension,0.2948692559717583,0.10088237240494038,0.5220202704988423,0.25546049052175074,0.19374775051298287,0.18830775775489655,0.45369457835994503,0.36926818072263073
2.3823823823823824,fist,0.5082646723868111,0.5783215562455514,0.6156099079753762,0.6149367465955289,0.649947200137111,0.7621313392789613,0.3751918826854761,0.512789275700979
2.3923923923923924,wrist_extension,0.060273172358568355,0.275651530281393,0.2995407167394134,0.5531774711260785,0.3922795755732498,0.04647041905321429,0.1642182608130297,0.28589798447079884
2.4024024024024024,wrist_flexion,0.6387871474948816,0.23137155548019137,0.6192698894116863,0.371080920196566,0.42076010739298414,0.21031476154226802,0.32242420802485144,0.4649170073236514
2.4124124124124124,fist,0.428096555629062,0.28982264730320584,0.30197145977811823,0.25331651792656995,0.7668617967032941,0.5371819364380528,0.358010180092533,0.6828138621862577
2.4224224224224224,rest,0.025585728979219232,-0.0021834459312469142,0.005137892421047338,-0.0356573138528515,0.04011115271339909,-0.0070153165944851735,0.05882974103034322,0.037483871576018346
2.4324324324324325,wrist_extension,0.3751662136365261,0.4854804547566618,0.33826392273873396,0.5278100585204129,0.29804249354007417,0.5065317403739324,0.32885329965495325,0.6840478293006115
2.4424424424424425,wrist_flexion,0.6344378984266072,0.4182541362870407,0.13099873304594598,0.43279004293098033,0.4230466720740319,0.5029627349157734,0.5647380504990874,0.28489768657775283
2.4524524524524525,rest,0.08755917127669194,0.1142884889420231,-0.0023758014235384377,0.06565000326196169,0.0044885314771468685,-0.09274788568900083,0.14668345292277316,0.052147697101737
2.4624624624624625,wrist_extension,0.24513611918233524,0.2952536252152194,0.36752250257983404,0.47317821233606716,0.6171083178438288,0.36810572164400357,0.39922362279190793,0.251471844784812
2.4724724724724725,fist,0.05633487054902067,0.4552510795689909,0.3788227295606692,0.7140656239324791,0.2562204902401485,0.5878387191095056,0.6247727683276694,0.22478645173067213
2.4824824824824825,rest,-0.009055899800476112,0.15173222750486784,0.022456338266708325,0.08061765356768225,-0.07862057365650998,0.09525878875723448,-0.06898649485207128,0.1314071703759839
2.4924924924924925,rest,0.06435182046435499,-0.07370880238375463,-0.0646044554092323,-0.2038659150342655,-0.0037888290928825654,0.0011258415226562415,-0.0459801695067707,-0.003051150887675394
2.5025025025025025,wrist_extension,0.18630786479433073,0.3532675891954753,0.3033544576565706,0.4181006217414783,0.5705194572192911,0.20212964448481052,0.2753397328931838,0.4193459754034585
2.5125125125125125,open_palm,0.517884433114515,0.42517264901931345,0.5286845979941822,0.611599027731827,0.27377432262817647,0.3425347848621276,0.2248812349321637,0.14282687498186106
2.5225225225225225,fist,0.5747547007089568,0.3999919283600989,0.7016202873694191,0.41497921672755866,0.2636353878068629,0.47037380112770477,0.6125268647373283,0.48712444189153936
2.5325325325325325,open_palm,0.25806367937254565,0.2543857504923167,0.35362808103336535,0.24544773026731936,0.30928937993901573,0.2637723117678642,0.23805370098934123,0.3626617254378529
2.5425425425425425,wrist_flexion,0.32682195652305945,0.31870233750426347,0.34793741791132804,0.2996539698432027,0.5266844589415918,0.4069325595308767,0.5618997787434178,0.4443384839491563
2.5525525525525525,wrist_extension,0.27633770927466766,0.4734026663077942,0.3335047101079327,0.2068580545159385,0.4837670337302475,0.6470412674813723,0.37485030197448244,0.5117418727615012
2.5625625625625625,rest,0.0382340469482361,0.08314589675885622,0.10096889088528638,-0.14509988274865643,0.0024864845397794978,-0.09885188063665427,0.034403875005640336,-0.021363771188078362
2.5725725725725725,wrist_extension,0.5067733122998976,0.3772497689639023,0.31461778269680607,0.44352169017799115,0.3629911839817299,0.3645849116597367,0.4026807027482443,0.3828882607292843
2.5825825825825826,open_palm,0.39972388731065817,0.37347525133128656,0.2201705360861875,0.46106567627515593,0.5873869418518921,0.24966982176677052,0.20177362083826852,0.3750145711243104
2.5925925925925926,open_palm,0.3686074211210728,0.2437224995225153,0.48017903022755787,0.34943310185533505,0.44034375061044934,0.14250747966355456,0.2559674702446117,0.285338163653287
2.6026026026026026,wrist_flexion,0.45665980970754816,0.4203174949144468,0.4061876453609776,0.3366548185053901,0.3438396271825416,0.5892382729869666,0.3688234896480113,0.3462552530414601
2.6126126126126126,rest,-0.007342094325532987,0.19130686586249787,0.1990409219461724,-0.06550985524555608,0.11962592746962458,0.1565256158384155,-0.056530302346241915,0.000568479051269606
2.6226226226226226,wrist_extension,0.03643352015947807,0.5191809703910388,0.5696182007530711,0.4446292914709875,0.35402334257569656,0.32888865662777034,0.5702634478932134,0.4888560311678683
2.6326326326326326,rest,-0.11008717251863553,0.11634239518886742,-0.12105021211453056,0.037500326740166894,0.0021978031908131564,0.17801258411482718,0.0744814031034711,0.18334306205851406
2.6426426426426426,fist,0.5366900619095893,0.6207405788829866,0.30280966559657785,0.3136706490041016,0.6019172492039384,0.3777595891390581,0.47228679185449907,0.5070170375996363
2.6526526526526526,wrist_flexion,0.3935906232444878,0.299310425946515,0.4329723557998032,0.27474011170909346,0.5653057356703175,0.332839975504624,0.4099496721957802,0.206924128689538
2.6626626626626626,fist,0.5335162910957632,0.45031427292955006,0.3979016600156428,0.34275317952573237,0.6851595382447858,0.4687348645730897,0.6835446612407432,0.3826762230084908
2.6726726726726726,wrist_flexion,0.533908848324167,0.22701765546454503,0.1920903329984487,0.1370230490183572,0.2560087635676636,0.1942672341195793,0.5485852638136057,0.29821213187535284
2.6826826826826826,wrist_flexion,0.3768349692851666,0.5043856354488925,0.34948564419878014,0.46166534815362037,0.3415342784088202,0.5685566651037423,0.4935887211958173,0.5121816988247005
2.6926926926926926,rest,0.06707417607409398,0.014136130873762984,-0.07227190628767836,0.03304453539269582,0.10877026064237749,0.032216366092769615,0.006593854003526527,-0.06389737921939141
2.7027027027027026,rest,0.07965138280920647,0.07394601559715276,-0.08320902790679008,0.009613389771876868,-0.07445542086315465,0.08206610307305713,0.029114651993737663,0.0302703260672426
2.7127127127127126,wrist_flexion,0.5453564114783869,0.30135112973799144,0.29032502801952503,0.4020958847023918,0.3397083382209917,0.10818798801283314,0.416596639299781,0.602724381249421
2.7227227227227226,fist,0.693887995914394,0.3560048618803865,0.8729421910499411,0.6060468988297972,0.4079205160255456,0.7316970004197801,0.3447263993624618,0.5472825050165606
2.7327327327327327,wrist_extension,0.5362245462791986,0.534339162676341,0.5359271514658656,0.3196435757325302,0.4346067175573161,0.21287260752450865,0.3748721765828857,0.37416474492008694
2.7427427427427427,wrist_flexion,0.33647942138063025,0.2582802951927779,0.015234003840981392,0.3918554938000981,0.4964782969134189,0.20992953335320153,0.569605133928564,0.3548835762518091
2.7527527527527527,rest,0.17036177586408008,0.12092520509570022,-0.07255345467457061,-0.18432447889886128,0.20654602859589952,0.02234307981200083,0.0007853856996932551,-0.04083646695846793
2.7627627627627627,open_palm,0.300197225959889,0.11064097045148738,0.06172227179198808,0.3493086963783708,0.23366848354828043,0.31081258077983176,0.2622207543971904,0.4215857095043365
2.7727727727727727,open_palm,0.3473611419094038,0.06431810577167685,0.3048935103593169,0.2586046735173186,0.262041711884141,0.3413747009952417,0.22411083831399245,0.24646533909915083
2.7827827827827827,wrist_flexion,0.3930076865348043,0.701156146875539,0.19266760513526288,0.3038346370070724,0.3306493811675213,0.4913206459955433,0.28895656241500023,0.3614432525772567
2.7927927927927927,rest,0.04554700073681522,0.1887406742890199,0.035859067122122786,0.11540588578565827,-0.13007177006474113,0.06766580300307555,0.1527299133805017,-0.06675819593000677
2.8028028028028027,wrist_extension,0.5958243136893642,0.5057712513532076,0.5711664603977702,0.3084016714231483,0.2847092505656424,0.2149712268572015,0.15907344119247993,0.27248224296503304
2.8128128128128127,wrist_extension,0.16843355691718442,0.27262701919753435,0.3880187395497343,0.15364381612668837,0.5950915249616409,0.3209529036904976,0.29739859835695337,0.34588880682975465
2.8228228228228227,wrist_flexion,0.43293372208574116,0.6183570819077432,0.4968466659863787,0.14894431092887073,0.27386059137532565,0.6134133308495067,0.38344000519540594,0.4781297842606422
2.8328328328328327,rest,-0.01127512241265699,0.06135101175790724,-0.03821099496460135,-0.018694575001357457,-0.212923718944732,-0.06456337814604556,-0.06881865929499413,-0.09554701933848779
2.8428428428428427,open_palm,0.5551276638175054,0.3034617703722263,0.19908097120383295,0.3585590894497665,0.1457094619350518,0.204469841371072,0.37483029988083316,0.3851875049561375
2.8528528528528527,fist,0.6651366552057495,0.6396786742157257,0.3850988021403556,0.4061740204648404,0.641443589855487,0.4210305854713257,0.4235891025759737,0.6546681529505219
2.8628628628628627,rest,0.17137364961867207,0.11200888796994567,0.0031381500817949043,0.0019323671116016257,-0.030647825046718754,-0.002358531841689711,0.05754062829153842,0.09939596866414824
2.8728728728728727,fist,0.491842214217105,0.34411571529921514,0.46863800509958153,0.5322086445996012,0.582441160130754,0.6451694037445311,0.6620567718136265,0.7016139174017717
2.8828828828828827,rest,0.10583982315360355,0.020712054247143834,-0.10744631543194193,-0.00864996478560041,0.05974188833963887,-0.02379168435077353,-0.026040631775080283,0.13279485085837933
2.8928928928928928,wrist_extension,0.22831115612831565,0.2171927714948201,0.3644664893513546,0.3947855002059167,0.38460081693448794,-0.06506613618034618,0.4002685497412678,0.1817866510655562
2.9029029029029028,fist,0.5337414879887075,0.5841952356685199,0.3921992703665007,0.6175377874912595,0.39107412720513574,0.4713029848283213,0.37607194933626853,0.45446040613763117
2.9129129129129128,rest,-0.06336591227694052,0.34382990766793536,-0.1981359667663614,-0.09950262794222016,0.06215625987418412,-0.14919359143265729,-0.09058356126345717,0.019584671857876476
2.9229229229229228,rest,0.019410369595984096,0.20602913386842464,0.024567260490678287,-0.018535553152786974,0.01965973686332037,0.08660410640068957,-0.0001479847825142802,0.06019507019288553
2.932932932932933,rest,-0.03411469577795899,0.18559868657245426,-0.061306111210046525,0.07410198320427862,-0.16342221996132822,-0.03704197619235152,-0.0008972653746842823,-0.03148485737618924
2.942942942942943,rest,0.11254577569918192,-0.11431442447678648,-0.04623044190117058,-0.027932112380473908,0.02544993759124589,0.05011643290087217,0.0696952889008093,-0.011548708028001519
2.952952952952953,wrist_flexion,0.3736739133033111,0.3571981078015086,0.31149353728872176,0.324865326075797,0.38671057215938726,0.2588950737087179,0.3306201814041959,0.2733072685448011
2.962962962962963,open_palm,0.27792508397205007,0.4325434956979962,0.40088740623679986,0.4577982253085854,0.2652067858405698,0.36205884297706287,0.4186706919976438,0.1783862114333995
2.972972972972973,open_palm,0.3186449734602395,0.24524931599026695,0.29508453467151524,0.5229593857863309,0.2066830625441821,0.276220668484984,0.19951401331138646,0.38121827305081957
2.982982982982983,rest,0.11942736383027197,0.06534077381957443,0.007105940925628659,0.06077099185010169,-0.27328501361237983,-0.08610051389375907,-0.17538701147986346,-0.07966147155269582
2.992992992992993,rest,-0.0042148346290407255,-0.037821062673628406,-0.013096253873274222,-0.19503830020122395,0.16255983296057658,0.12761709746340197,-0.01821100687672518,0.013647656863764714
3.003003003003003,wrist_extension,0.17287153498236185,0.21225955467039667,0.2955750162379678,0.3060390465283753,0.15752062461642752,0.6714111256941665,0.39071197184660283,0.3037643304720217
3.013013013013013,wrist_flexion,0.43639784950717064,0.47225832349262303,0.35603748555705533,0.2680274988882564,0.6018537852282173,0.5335158986507054,0.2207397260996634,0.2918490620240366
3.023023023023023,open_palm,0.13746814887374398,0.022528042862463765,0.44882614927257725,0.31068757838430117,0.3868799523408335,0.4259311259653223,0.2401227353559655,-0.033108902849152494
3.033033033033033,wrist_flexion,0.3059386595171805,0.4102099823213792,0.43859334962177365,0.2231723638583464,0.5090103454569428,0.3619574448961481,0.482399374911361,0.27534118463853946
3.043043043043043,open_palm,0.23342127634414056,0.39423299744795814,0.36477919023359984,0.149169601647209,0.4312487126601427,0.272680665340669,0.37946953595180893,0.07136896537642476
3.053053053053053,wrist_extension,0.6468903493293656,0.33766153478213884,0.5029074330635309,0.5787010466102263,0.22880359691221272,0.4515981470962982,0.22120182598712226,0.013009562031277677
3.063063063063063,fist,0.3971807183856729,0.5906466028715543,0.4466898131204994,0.3277595100434957,0.6125800708795487,0.3273087723269796,0.4898722741746918,0.6399099159076541
3.073073073073073,fist,0.17078244020461505,0.6293024024003144,0.7169890680715878,0.5314370827136137,0.5641773367780046,0.5124743670048629,0.2482908482864043,0.23104802741050617
3.083083083083083,rest,-0.17111982303340337,0.11004032662040447,-0.08118086108573191,0.0777725820094678,0.06511129154561886,0.10284963482476964,0.052634641725193665,-0.16494116709745052
3.093093093093093,open_palm,0.2010352253346276,0.10196748206972939,0.19382581597107365,0.28506017435119013,0.3579140890128243,0.3465861205543209,0.2796996160986441,0.2848068522433955
3.103103103103103,open_palm,-0.1012989090294027,0.3042171915422226,0.5433987676043972,0.4526011685781838,0.17411232307689034,0.1491194178696687,0.4234143389007483,0.1759308178513977
3.113113113113113,rest,-0.0023288163603043762,0.022805824976145583,0.05063686917597637,0.0689687420135433,-0.04175600550289461,0.04116184813531044,0.10432001283714609,0.07275270448398251
3.123123123123123,rest,-0.029476718945891968,0.13356493806129496,-0.14835488774518804,-0.07212546057606788,-0.003405060075421298,-0.07774852987111205,-0.07468868690593077,0.13947461279800197
3.133133133133133,fist,0.20265359416458592,0.3594306351678343,0.4575882807961622,0.6912595290099064,0.6849618412388219,0.6747732531009991,0.576742276577934,0.43392131934242284
3.143143143143143,open_palm,0.22080283160271763,0.2295963434803211,0.23047594984611916,0.24492427415527973,0.41074255502392865,0.17113199572594281,0.27255615835029934,0.29175389687487446
3.153153153153153,open_palm,0.22146180597476134,0.2745471564257877,0.22402311532693983,0.37786800110691143,0.17651821855850422,0.15050615074696827,0.2109770421879061,0.19187070701505254
3.163163163163163,wrist_extension,0.5849232599813274,0.19749952920935251,0.5090664930789544,0.6077095838406019,0.2627540199590872,0.1790992035708374,0.42096150401116783,0.1600154003229997
3.173173173173173,wrist_flexion,0.22487286606758472,0.44615887084925676,0.6077880476222923,0.13776646514604102,0.2736870645230286,0.3991124228898626,0.24903475498011893,0.4150258500252804
3.183183183183183,fist,0.44699804435625384,0.25991829345503176,0.5349636247876922,0.8300602844875642,0.4117057272793187,0.523979218893752,0.45947627759791676,0.5942833345170825
3.193193193193193,rest,-0.033598190934783674,0.07614102402369836,0.03850351417139666,0.04204467686318589,-0.059043892474180876,-0.14088142509095788,0.035660241557079156,-0.04845648513695611
3.203203203203203,wrist_flexion,0.4401956996532775,0.3284726575875778,0.24759064467167297,0.5039269499606541,0.6024267420164173,0.4458587950919695,0.5135912292302959,0.19709374581943923
3.2132132132132134,rest,0.13105208969840776,-0.056434106991646096,-0.13200737636625923,0.12419325937808218,0.27867074427178795,-0.026243033232663766,-0.058387994395355663,-0.18391324187384722
3.2232232232232234,fist,0.24498587402588198,0.3865924381131653,0.2948330027784059,0.6010136327280673,0.4397661534179465,0.49630394142620493,0.6203565995750993,0.4375545543485143
3.2332332332332334,wrist_extension,0.20238493299444998,0.38793921917419605,0.39216993560222985,0.540695393804224,0.37481500218687225,0.3798327252250711,0.3319283436877295,0.43138346798349647
3.2432432432432434,fist,0.36460027616168356,0.18998101907309742,0.3912564042631835,0.6948942983191173,0.419264271221896,0.37744421854150867,0.3232670933619134,0.4155928596678598
3.2532532532532534,fist,0.35149235663679523,0.580094557770513,0.41604698197696965,0.4537178991133471,0.23863182322277288,0.33284265258432383,0.5208038001757681,0.5522200500871889
3.2632632632632634,open_palm,0.3566941704861906,0.17701681078983972,0.22578093560071366,0.17584023493139145,0.08901613973006511,0.04202077315274674,0.2776723193181249,0.4697224180071715
3.2732732732732734,rest,-0.010107587629142262,0.0003050597642255672,-0.046795144608025245,-0.04942026493547394,0.07886106764542766,-0.0008151207936783035,-0.2567994405328537,0.10303873632105072
3.2832832832832834,wrist_extension,0.34756181107810785,0.37695426815149924,0.28261825026837717,0.2533903547837866,0.13738469806551876,0.3706561161783673,0.09794190727886698,0.3332511236494387
3.2932932932932935,fist,0.5271902932450573,0.36794609610943524,0.3206205473040956,0.6494744605798368,0.33182009723956274,0.34073780786860913,0.5006885384429334,0.4754913730555657
3.3033033033033035,wrist_extension,0.33131320053788815,0.4838578109931705,0.34862810659690313,0.3739263802379994,0.5220840109172606,0.136027373681339,0.40447956656169104,0.32781443932453896
3.3133133133133135,wrist_extension,0.2593674276699861,0.28381180510805615,0.4032747978884158,0.3595283113033031,0.5274104187385447,0.1491042507972366,0.402846458851456,0.4057147464124551
3.3233233233233235,rest,-0.16009375608081466,-0.0026492567731195016,-0.13424737068338927,-0.14044982265590708,-0.11737259645650769,0.08081846712393646,0.2169291313565716,-0.0661412995372916
3.3333333333333335,fist,0.4839299507843354,0.5429164173465981,0.8298061858445086,0.1718127410807952,0.6220226542339733,0.6048550715713004,0.7424421031156411,0.7513171069032226
3.3433433433433435,wrist_extension,0.3855663958394643,0.4270461085828502,0.26494008889488785,0.39106160001689716,0.32454235036876494,0.2988750142497257,0.2744475135011526,0.166718650137837
3.3533533533533535,rest,-0.046936647273574904,0.14884227344960455,-0.041866644039304395,0.10558278717740273,-0.19900219752680923,-0.12231332909096533,0.07092555083220996,-0.13165457435907763
3.3633633633633635,wrist_flexion,0.34807132442706895,0.38708942627287574,0.5920285448671556,0.3455801797295701,0.19818928467251345,0.2676117386380575,0.29105065118127077,0.379677595253814
3.3733733733733735,rest,-0.037618138061744195,-1.440491948713187e-05,0.29503369254030803,-0.09843758730376018,0.15753338682698798,0.16031230649089467,0.08097809929597093,-0.06310637401995693
3.3833833833833835,open_palm,0.4526470888351235,0.20191272953450556,0.2963463846652976,0.09639519873734881,0.30673826746736554,0.40159329886788575,0.2388333546667806,0.37674503238040236
3.3933933933933935,wrist_extension,0.3648738470239227,0.36771872725595506,0.5435523789028278,0.4294106390413402,0.24061351654319862,0.13630282844263458,0.30508943608794326,0.37755387707482957
3.4034034034034035,wrist_flexion,0.2047668387789933,0.7892082385516724,0.2862254816405516,0.3619723265761098,0.4184930119883399,0.3298019645977099,0.4890442256399382,0.2735315877901787
3.4134134134134135,wrist_flexion,0.48723714550704517,0.48998432246727,0.27351158728963426,0.49765636651758394,0.34156608083553025,0.6925011792285759,0.411113632305699,0.4018563130163783
3.4234234234234235,open_palm,0.22700753435539317,0.3791757040656627,0.33234533858278814,0.3302362298927028,0.4403839482539996,0.3144311608721505,0.19203805954729644,0.3090371619022031
3.4334334334334335,fist,0.6264003050480464,0.6672237189076843,0.3385711443305194,0.4926624497473673,0.5605594920470496,0.5676974992864487,0.4741062144307132,0.16658006307719142
3.4434434434434436,wrist_extension,0.510424799375689,0.3830689081000809,0.15116523236569798,0.1161473025512632,0.4749589040677388,0.07257063875359243,0.471918343009181,0.45261557829129884
3.4534534534534536,wrist_extension,0.5378204556023318,0.2778209005999374,0.6333406782803088,0.42818415346461525,0.1537533923940856,0.17598554273978764,0.5513156657104409,0.41235711634548455
3.4634634634634636,rest,0.035599213077196205,0.05210905415829134,-0.02908448165672674,0.07775007652301058,-0.0067563512310341405,0.029600036980029283,-0.03408091614758648,0.06697715494245277
3.4734734734734736,rest,0.05704756863827262,0.037219880953108485,0.11282481654969556,-0.0748695675570951,-0.1617282149149324,-0.07041459850276831,-0.09937618298465042,-0.17330595182726427
3.4834834834834836,wrist_flexion,0.22008530577098626,0.3209420651252652,0.521615755870975,0.2862802037227934,0.5007654532137812,0.6720517837259775,0.5884729595723808,0.4404803422346753
3.4934934934934936,rest,-0.09797745849327606,0.12180872234700368,0.20977894860727186,0.11398021836415123,0.05370698761924443,0.06942927739609733,-0.13390906280416634,-0.07223390261983202
3.5035035035035036,open_palm,0.46378490147396906,0.18810499163819372,0.5109149495807308,0.20861827534755806,0.030378420549036902,0.11445107584850162,-0.06080503911675214,0.24960140498755953
3.5135135135135136,wrist_extension,0.37711400188164873,0.24852084095178947,0.46985644034260543,0.33501125931535086,0.365590327614102,0.20995707011311043,0.2761200551468451,0.5721976004376612
3.5235235235235236,fist,0.3646674220623335,0.48330449508362444,0.3554563817923294,0.7513859860483624,0.458833260696331,0.40941676742786737,0.6045998657056804,0.8159781594130899
3.5335335335335336,open_palm,0.40049034050477283,0.386261284695678,0.33037372918586627,0.15609930747220688,0.44981175975213955,0.09283857724207134,0.6056658791913156,0.08374678230214791
3.5435435435435436,wrist_flexion,0.6499296755514652,0.22775433591067717,0.2621068057008061,0.5639364309159228,0.30456501373149913,0.24203021512448486,0.2137991165876588,0.3143170657008504
3.5535535535535536,wrist_flexion,0.5089401060623906,0.36952515605356795,0.2380899652384843,0.30634290676130005,0.45911023713189175,0.4794081929905105,0.3260258133210716,0.4710854270336182
3.5635635635635636,wrist_flexion,0.30791489085754786,0.7611215511770821,0.3632932447541585,0.30245219064501994,0.3647341145743672,0.4451182759763787,0.6142388910363846,0.3548153556850043
3.5735735735735736,rest,0.000386991478236489,-0.0866788537418758,-0.08458757891222271,0.0074314415296509026,0.07419372284568994,0.059539029729847516,-0.12370899564432886,0.015078906321771945
3.5835835835835836,wrist_flexion,0.35422529058006896,0.37514461435619073,0.47921799701773815,0.20073148874559069,0.5078733988385105,0.2910236206430547,0.35201816631818883,0.4659550547920013
3.5935935935935936,rest,-0.022390957701285085,-0.09016445872849443,-0.05943860330063766,0.005642100379436815,-0.1965660112446462,0.21557291430186942,-0.07807382463545902,0.01924508957048754
3.6036036036036037,open_palm,0.011528577876109308,0.2704598091635546,0.3387502188620083,0.21402428737021867,0.4031246890659347,0.43154564527210054,0.3698558647372014,0.1731653007909174
3.6136136136136137,rest,-0.11531001512863259,0.02227155407042717,0.21788624131275416,-0.05202085269945444,0.13637834466837534,0.00896882259382122,0.057689551883047065,0.15466003726189265
3.6236236236236237,open_palm,0.2611732078695732,0.5643560278378117,0.36012924722262596,0.2858942336605856,0.26610453686418434,0.37066823197345267,0.3582618859170979,0.5399835851414412
3.6336336336336337,rest,0.011116552913711535,-0.07297148314997996,0.08024050506120883,-0.06739546604503298,-0.17086088601004365,0.025126337594057586,-0.130649333859688,0.054258591536856374
3.6436436436436437,wrist_extension,0.4881888025870576,0.282754121322619,0.5402410972707873,0.4122849035082584,0.5043084384594982,0.2399452451352458,0.45047728863085257,0.3216889603085026
3.6536536536536537,rest,-0.004368731617350269,0.1421022605571262,-0.09779210950950196,0.043463120598433685,-0.004424098000597247,-0.108892783951917,0.041170023735614125,-0.027568853818973678
3.6636636636636637,open_palm,0.2992702723766755,0.36099101019013546,0.3486403422404209,0.5110132028777989,0.14606687564230558,0.09923804185762598,0.13576522099845106,0.24836566747245298
3.6736736736736737,open_palm,0.18454005395343426,0.2868028812437467,0.2875971095166995,0.2126280959406751,0.5194408028266567,0.10266542663683956,0.24440060338878872,0.23898783496883821
3.6836836836836837,fist,0.4688088797501002,0.5820330053533215,0.34499294738423647,0.4935787701106396,0.6752168513541311,0.708661330867443,0.5660283758099854,0.5567437707075629
3.6936936936936937,wrist_extension,0.4848301601914219,0.36151105464776856,0.24445741884958064,0.2823919959174224,0.3346071116589555,0.2731084677523594,0.49083380092399564,0.372878026129008
3.7037037037037037,wrist_extension,0.4100464216299034,0.35861403682849013,0.23085869856286942,0.22832057476707718,0.4083929518390043,0.4864056409880392,0.3778656965311592,0.19613018411975724
3.7137137137137137,open_palm,0.5499933555653681,0.38255564484871335,0.36256809571758297,0.48663002530302646,0.18706680383303864,0.39245077154030483,0.31023225264407533,0.5804479076439063
3.7237237237237237,wrist_flexion,0.16976617637267477,0.4433979587173849,0.5466686993659905,0.3834870510599471,0.42284201412206956,0.3668803708322661,0.2734499619534121,0.380447116670122
3.7337337337337337,open_palm,0.44422015043882235,0.17794200721868764,0.2825328226074134,0.24929723235774606,0.38421824473321897,0.4179012464648496,0.3584273111837218,0.23371976642748615
3.7437437437437437,fist,0.45904019119746553,0.0538812179617944,0.2732890515343198,0.31925029312871517,0.4964411793462142,0.4531358916068484,0.584670879974124,0.5502740275476743
3.7537537537537538,wrist_flexion,0.5103611951545113,0.5510862114654597,0.3382672413434376,0.5717146674534302,0.2551095989373602,0.7019810153493695,0.32177101769960914,0.15942179814813565
3.7637637637637638,wrist_extension,0.2865523114494454,0.1998884032830704,0.6578315731036676,0.3966609189766485,0.38131800036028124,0.5732440119382705,0.25359784723358103,0.18058826909204068
3.7737737737737738,wrist_extension,0.4407053194333564,0.42830204690161333,0.25003052392417136,0.3333665666412191,0.642564425698231,0.4161951372505417,0.4696311551505261,0.5202416114870034
3.7837837837837838,open_palm,0.36662997616782184,0.21409414652865183,0.5941695119307931,0.2790352047122874,0.5342249881739121,0.3154639548644198,0.34355376831410195,0.08423251009501159
3.793793793793794,open_palm,0.2181904944534525,0.2845211240892261,0.40916435094346043,0.5241370775594476,0.151865164612861,0.3275291527616204,0.2790345337089956,0.4849291218800251
3.803803803803804,open_palm,0.2623491562214683,0.3404411289072732,0.2686910713618976,0.41289365302239195,0.27626833220518615,0.35368903014821634,0.3537420968913515,0.39743576872309727
3.813813813813814,rest,-0.10799626762329306,-0.07670985217640561,0.025012707076367203,-0.11991518875603951,0.009530476961302091,0.0866442527847513,0.11306038847532161,-0.011431061039714707
3.823823823823824,wrist_extension,0.43902820311403856,0.22148688947142797,0.49914317094823357,0.20961264480697706,0.11573597683095035,0.2698520478514046,0.21690857508899247,0.2598606413184537
3.833833833833834,rest,0.1282890618671169,0.02834221858165588,-0.08644577511642121,-0.11283908051659267,0.0006406864388060582,-0.010423807269635208,0.07801023260811565,-0.12505607483970124
3.843843843843844,wrist_extension,0.2651633597949749,0.5984674335598212,0.30612234164589425,0.450400924365661,0.25386044942569463,0.25387789413267836,0.344695087947781,0.39286182226766797
3.853853853853854,fist,0.5508346671154855,0.4299133728297559,0.44811447830120665,0.9127479256109261,0.42616215054563683,0.4851427597409722,0.5215278166434965,0.5051678759441393
3.863863863863864,wrist_flexion,0.2940938989800317,0.2865668461578216,0.42389585743438896,0.385181317770813,0.45750655928142514,0.37601563579817154,0.510072509625433,0.4357896991034608
3.873873873873874,wrist_extension,0.3355440640812469,0.4826045186713984,0.4759710997847176,0.4517965397693153,0.23968351297412788,0.48176130959692853,0.5819411551847821,0.23155921778963737
3.883883883883884,rest,-0.036018428325602155,0.07542103849230908,0.018074942406351744,-0.14484907779671477,0.03365161141209177,0.0307290886606571,-0.041677044367170554,-0.046592612362101354
3.893893893893894,fist,0.5131794288137727,0.4935105095814112,0.5688641272233745,0.4741287439258063,0.5685548402249517,0.450231655612887,0.34633188634526607,0.3760155195334631
3.903903903903904,wrist_extension,0.3008570839774359,0.2688193427946254,0.388498576688453,0.23947749719886058,0.39935927127623577,0.501366726507158,0.14302716414967295,0.6816696852874499
3.913913913913914,fist,0.5109700833031481,0.558915101378242,0.7252689211847052,0.5626084298872149,0.6076245333640469,0.4811722127963416,0.40433616596681343,0.43770743324373007
3.923923923923924,wrist_extension,0.26552807119860444,0.31777556218396885,0.4160870349586388,0.3765840155814631,0.29122164016161495,0.2622477498780411,0.4799159569961868,0.3650266919517366
3.933933933933934,wrist_extension,0.3426961357827921,0.5166380994582018,0.16499226002402068,0.5305186082774273,0.24023179492820518,0.3205172654402081,0.3705865649026728,0.46078540673174
3.943943943943944,wrist_flexion,0.19651250925179858,0.4147521446682591,0.3816585368963068,0.320690551953216,0.20170163948721498,0.44109783034381267,0.28450624941957414,0.14194979209528993
3.953953953953954,wrist_extension,0.5872633214846197,0.2781877643747286,0.5107286305348118,0.49658723817353045,0.4246109847526037,0.2559161838317865,0.3596237709345066,0.43459291201188144
3.963963963963964,rest,0.04053084827000392,-0.27661086080977115,0.1286671032662255,0.05946206898764772,0.04420266305304516,0.11165728106834492,0.01055543868308553,0.0336366344960726
3.973973973973974,wrist_extension,0.026311633260601472,0.35479921254194724,0.3582286262800635,0.2838872450588852,0.35169238254151003,0.31582395087434023,0.360047408561013,0.4340424369240861
3.983983983983984,wrist_extension,0.4123014156217026,0.32576126935990757,0.34626096996612415,0.33807407815946083,0.502948126600233,0.6573706488821643,0.3548877446801243,0.010002580791742155
3.993993993993994,rest,-0.1412623680879984,-0.03204727236753499,-0.1680529312212543,0.038576004011203514,-0.17445023528755685,0.07811835414819496,0.18984018044326895,0.1190294438238747
4.004004004004004,fist,0.34509780849407357,0.4184785506583172,0.32327504280747005,0.4714999598298775,0.4853477459502092,0.4884288592012741,0.47050948536033743,0.472271354687231
4.014014014014014,wrist_flexion,0.41826560550799957,0.3861117734340812,0.5762581599192962,0.28879502731653295,0.5389929431740359,0.3390196399098604,0.4541405330255565,0.390941561249459
4.024024024024024,wrist_extension,0.19738483973276405,0.45202698784410233,0.24503624546429778,0.5154396412945823,0.38095463283265546,0.46245804856706,0.41882449297013086,0.614971576641963
4.034034034034034,wrist_extension,0.33683044569647125,0.21945169125202724,0.507288898339118,0.22602992926777976,0.5309548781673488,0.45156264238443106,0.552772686781477,0.16890118378927277
4.044044044044044,fist,0.4353900554247571,0.41552821365042003,0.37860396945743174,0.5129323968530264,0.41895803062106296,0.5955217001609865,0.6676766849859977,0.3372922739532437
4.054054054054054,fist,0.7605273612062123,0.3447266768125619,0.5765575648717648,0.7105955959974564,0.7678613848100294,0.45366177669713936,0.7081499729637666,0.46906798219397644
4.064064064064064,open_palm,0.22606352399157992,0.511127267974207,0.22766965718144636,0.3984617958304064,0.37373203523297427,0.2105517122314165,0.15659540677826167,0.28659932846548136
4.074074074074074,wrist_extension,0.240731513995167,0.2904964788884636,0.380567722138786,0.7184211769644739,0.34594449686977713,0.3516810470119467,0.3273067797039518,0.3582019606392383
4.084084084084084,open_palm,0.4901534976423514,0.3771590933061406,0.23522346060875848,0.08847525362560392,0.19612957419946858,0.3221695521775161,0.33914159044490844,0.20128482082150845
4.094094094094094,fist,0.4171278877047627,0.5797999928641757,0.5612854279279915,0.5698577348836413,0.6715750209318728,0.5847190569054532,0.37291378686946264,0.525717931487419
4.104104104104104,wrist_flexion,0.4589577305744198,0.25781077016086107,0.23884404841795748,0.5876657547498063,0.4507355134108173,0.6283790986166419,0.6055691281520201,0.48296726878318286
4.114114114114114,rest,-0.14787404938269952,0.14133549292352895,-0.0579676821160762,0.12821912953108217,0.07949434487553245,0.07819731537726289,0.040875321128170834,-0.056569531516359586
4.124124124124124,fist,0.5828223421559264,0.4018498797754527,0.5590823168824935,0.29883413806144987,0.6326534180816809,0.5471240539624113,0.36590366382837175,0.42253623194749057
4.134134134134134,rest,-0.039932801976819574,0.16540488500097442,0.16084610236459063,0.16626716935583022,-0.01072344387772881,0.050735161021356945,0.12948374370526042,0.040509986313934175
4.1441441441441444,fist,0.35159173327768967,0.36117330659291624,0.7154976548343276,0.33421358618196395,0.41760603670863394,0.4040664205832988,0.3889678210636825,0.3290095871765571
4.1541541541541545,wrist_flexion,0.5604457119143291,0.05327285501522622,0.38547945276952705,0.3864270307829394,0.4726374939020477,0.36795137852146353,0.6841154859108475,0.38066350280752315
4.1641641641641645,fist,0.6633874154683167,0.4431465869634097,0.49821003160590777,0.6129332894034919,0.40223171405682306,0.47235629100761817,0.35580191440815656,0.46656516816420035
4.1741741741741745,rest,-0.12686530844911922,0.1261553597410317,-0.0223777838292243,0.09280031045375275,-0.1519727763476412,-0.0009130913258377206,-0.07209714302726701,-0.1815929240624759
4.1841841841841845,wrist_extension,0.37333934554372195,0.3754752281932202,0.3495427427127899,0.3586144280073171,0.28682239534283566,0.13102162051240523,0.41559701570410723,0.10696680150127763
4.1941941941941945,rest,0.05410221467171592,-0.007215939080237372,-0.024040269990543678,-0.14140586003409508,-0.007981368146083091,-0.14045281974575705,-0.1056962837203839,-0.02404318440711209
4.2042042042042045,wrist_extension,0.46621247356347423,0.5406066924520647,0.11404138369510866,0.13853924619803654,0.3058695082528348,0.2508218595240265,0.5592433136458347,0.2960178625701843
4.2142142142142145,fist,0.6284652338295659,0.35227365074675976,0.4772116601636059,0.4021444441774059,0.46416855900260223,0.5859879500781691,0.4392179879213277,0.59992237369348
4.2242242242242245,wrist_flexion,0.34126945123817315,0.324275497837922,0.25889424381704296,0.8285876840567976,0.4143932369795606,0.3457972478566721,0.5476746800389102,0.2945764086574829
4.2342342342342345,rest,0.01896204309476085,-0.06351866219200805,0.08235153584507167,0.03848811571428642,-0.12247202846680849,0.07294546808294332,0.11924662058903963,0.1994932098676796
4.2442442442442445,open_palm,0.20783277842582593,0.19417788650062778,0.3388229962374363,0.5054014489555472,0.2567413174030091,0.4322799380314591,0.156830658370154,0.21320251125862372
4.2542542542542545,wrist_extension,0.44598325966853514,0.368915919375192,0.5477434401119369,0.387440256894371,0.39241158696980694,0.4824956701637224,0.6112592583827293,0.6383037876515323
4.2642642642642645,rest,0.04918892097073511,-0.22800807601967696,0.22317695540468183,-0.136541129266571,-0.012154085410115653,0.008250445926020858,0.15497329680634453,-0.10855366273227066
4.2742742742742745,fist,0.4719169584655959,0.45820504472006474,0.5244466635457974,0.23045980704360225,0.13609841312462714,0.5982626629337713,0.35308835517602744,0.6304856304563071
4.2842842842842845,open_palm,0.2009829578539683,0.4137019617416347,0.7520614280319697,0.26004271778865695,0.376738448241906,0.1785062143327465,0.3219697674650007,0.5622890758454687
4.2942942942942945,fist,0.4558617781564706,0.706387340258139,0.4475324787582201,0.580373460212452,0.5913357815886598,0.5096546273065921,0.7384545653808561,0.44430780932891767
4.3043043043043046,rest,0.009066760833956519,0.09379272027011028,-0.05337856378514613,-0.0042987311275700475,-0.025467124439464313,-0.05752193530268751,-0.11790862295268026,0.019057783052355778
4.314314314314315,open_palm,0.3320835715376581,0.4081253350628775,0.25952127942585956,0.6633286479971254,0.3032306370416702,0.33216958923231193,0.15513802638437751,0.30306623246146364
4.324324324324325,open_palm,0.6442238728506109,0.3273384060751873,0.5631061892432864,0.49776428815121043,0.1699146313479955,0.045022929739162165,0.42369891920968045,0.1782692872735442
4.334334334334335,open_palm,0.26904793004524624,0.38227613587666504,0.2460389080984164,0.12390780569128873,0.3557503811605964,0.16359366152046478,0.2937320506567566,0.40867553600826856
4.344344344344345,open_palm,0.37610020896479074,0.032884873327040036,0.2659927384292211,0.5842290901348411,0.26222359298760967,0.2815781827780532,0.09644615818343594,0.2786388070407879
4.354354354354355,open_palm,-0.049156032486432744,0.5935152362445852,0.45996262088839684,0.35510425312756205,0.34897610034306287,0.4466108243855443,0.16837265519770908,0.24410512474089485
4.364364364364365,rest,0.16563072178424335,-0.03792597790698282,-0.022641175482039987,0.08976975980785018,0.040566286853635,0.1733463629569629,0.14147858553728465,0.11360899475311148
4.374374374374375,wrist_extension,0.44401018716597934,0.17526080625383572,0.8044697762444776,0.17810514477368183,0.29923515479874274,0.544528634182811,0.27578528170051314,0.23819506924320544
4.384384384384385,rest,-0.09638724289259919,-0.0634810985129565,0.011888608839888407,-0.08472145271852535,0.14748197836737775,-0.05786174541927402,0.04065767344046406,-0.007868890418966363
4.394394394394395,open_palm,0.3164954542109245,0.1212463977806624,0.2073405644684233,0.39228022329500667,0.2748144761343473,0.3316154547622322,0.24074371316417947,0.39834460002172584
4.404404404404405,fist,0.4596062724244825,0.7080971197901402,0.437312054435123,0.1637818327416961,0.49965898633189093,0.44029579822117304,0.5771910502898008,0.24614225086133246
4.414414414414415,open_palm,0.24103805556450708,0.28000528199483277,0.5171757009496523,0.19300224424800344,0.39948263744712864,0.3626565076945635,0.25514864415775557,0.48529221549495827
4.424424424424425,wrist_extension,0.4465192262884714,0.14890321120090966,0.392285608327975,0.3015014206483818,0.25398559254160835,0.472713440443673,0.21510577094443106,0.3993050127523852
4.434434434434435,open_palm,0.3300631217478299,0.44598953738961544,0.30891363265905775,0.3135324970295089,0.5409930276276032,0.3477508255978251,0.3838403590521393,0.21319457173759798
4.444444444444445,wrist_flexion,0.2424658514039597,0.4087673408299597,0.38402209249386543,0.369520740527153,0.4189686158409353,0.42792818761511386,0.3800784530313898,0.4293701669441481
4.454454454454455,fist,0.8298137153441449,0.4598802249390743,0.3291639161045663,0.43748361121690393,0.8706895369727553,0.8372331091998395,0.3272112502903729,0.46290493207533456
4.464464464464465,fist,0.591950283836282,0.2771226408760271,0.6961620091837062,0.5110541352544495,0.5330536991014208,0.5772800551891608,0.6179266541783477,0.3321922140979844
4.474474474474475,wrist_flexion,0.5352579616762096,0.3694322693232612,0.41062145828645374,0.7055177883705148,0.2661132739964064,0.3376430488060712,0.2738388981394531,0.3847848905198147
4.484484484484485,fist,0.4752083383822136,0.29319919109038384,0.3688106827319109,0.4732109036635071,0.522844065651915,0.44928955362363354,0.19110487330785894,0.4415936154612291
4.494494494494495,rest,0.14665260180793074,-0.07018560413975516,-0.04698860846705402,0.014172231544676778,0.10110263020074091,-0.030872456986794635,0.01991119992172187,-0.029258468445545183
4.504504504504505,wrist_flexion,0.24926391476178233,0.5195481035523386,0.5906475103772143,0.35877421491180783,0.37470231513185376,0.5071895294543463,0.5485027880427829,0.43374246908548775
4.514514514514515,wrist_flexion,0.12132080665314394,0.40702623353622236,0.4288198499119242,0.3424884092340258,0.4347271663692554,0.39536431716623527,0.2576018707199883,0.33178436202888184
4.524524524524525,wrist_extension,0.22344040172217788,0.2985164179460014,0.4700140319849574,0.285034823343352,0.4976301627801863,0.3688758208795214,0.15058230698687783,-0.02159809997346386
4.534534534534535,wrist_extension,0.41395848430525384,0.36261665829147793,0.1770315718908661,0.3199702447682884,0.41341000112550624,0.18242956291861484,0.5994040395558164,0.5815078776294292
4.544544544544545,open_palm,0.305200268240287,0.4879826918678501,0.5251546462431881,-0.013001422986571975,0.4999618460980156,0.1988948647000069,0.2343486077856497,0.5515833406775246
4.554554554554555,open_palm,0.1532423169339259,0.1629156517534017,0.311597924394788,0.5081402720312372,0.25333554980604717,0.28241046017252314,0.30152307996026606,0.3181723880458297
4.564564564564565,fist,0.6377421578223587,0.5724525533539242,0.48992144441598123,0.5940551889572958,0.4818177204031384,0.5027931768012848,0.513739948965149,0.340120979872602
4.574574574574575,wrist_flexion,0.4862606026464856,0.5327741353672162,0.5775206875329827,0.4889775955141916,0.3007051042597373,0.15827542650196635,0.5293560410851579,0.49988145353841906
4.584584584584585,wrist_extension,0.38902385549542295,0.35436075404894285,0.3506913958178363,0.38520723735036655,0.19253997131316586,0.6195787592244446,0.05448978097712698,0.45148256534386233
4.594594594594595,open_palm,0.4595384133899536,0.08511677531035916,0.3483423191431884,0.38935017170721997,0.25522242367986037,0.19480994459248704,0.3063167186330181,0.537310586466611
4.604604604604605,wrist_flexion,0.3080302671963324,0.7238498884269731,0.38650537130918744,0.3015145614585385,0.45525763650442264,0.4622570105495616,0.35659676132232093,0.461454411870818
4.614614614614615,open_palm,0.26093364524143126,0.2844585921162142,0.5816211666132864,0.25691572373868476,0.24460868702813593,0.475376246810181,0.39518233033761435,0.309096508391149
4.624624624624625,wrist_flexion,0.19314836355390985,0.2626011902292883,0.34001231738564425,0.42628147080260986,0.18139570461886928,0.44042604149608483,0.3939620970038197,0.5243062898521478
4.634634634634635,open_palm,0.38283070466859626,0.42794387484060104,0.2903080870702895,0.4910919823666202,0.15091163919467615,0.25619450059861404,0.26261770967302167,0.1556653283488551
4.644644644644645,wrist_flexion,0.46484036393097583,0.22528838310478624,0.3470658590498803,0.10047087032213564,0.41085876372932134,0.17817039300025153,0.48229625360228423,0.27242956994966294
4.654654654654655,rest,0.11131498436344689,-0.18172047370506877,0.024717010262800335,-0.06418598654631096,0.10557416641712865,-0.012672738571897125,0.1715989048427583,0.139121511810008
4.664664664664665,open_palm,0.3869587379309343,0.28743774153214696,0.15112024607518307,0.4288821092617416,0.23374023023111923,0.33241804035853156,0.5126060489251899,0.37271593254740626
4.674674674674675,rest,-0.16635636956142266,0.08229025914444386,-0.0008833988194127042,0.04001593460737177,0.17318576048416895,0.0669108637705864,-0.03984128931528872,-0.07229190931253214
4.684684684684685,fist,0.42951258299421485,0.5465609321570799,0.6695072579910086,0.5067137872434565,0.24260456753778759,0.35793389322901875,0.3799182927350956,0.6732110072458712
4.694694694694695,fist,0.47868434029844537,0.4102482129699636,0.47451536978805553,0.44599574908468714,0.7187255015843358,0.43822332349283694,0.4950615623035993,0.7918287312122967
4.704704704704705,rest,-0.1643612936958323,0.20190715522031266,0.008573101418960003,-0.10038095758024644,-0.013229066265038914,0.15688155375764096,-0.03052746957458173,0.005032869636754758
4.714714714714715,wrist_extension,0.27153338324714266,0.20974260183846777,0.30212421030171754,0.39172954803291915,0.41613107423071966,0.3108660780141529,0.30922119241827417,0.5091938681619527
4.724724724724725,fist,0.5170381678793228,0.6289991304130755,0.5092377507765183,0.44428103036169775,0.4866072263746499,0.2625879304621038,0.404403372777471,0.3828605583992736
4.734734734734735,open_palm,0.17919795511765857,0.4735466359709046,0.4181435421291144,0.5238811974974307,0.09900265790613066,0.46484515763015244,0.42070953768079367,0.29815009626881966
4.744744744744745,open_palm,0.44958086390595,0.21334114937874252,0.10119985849983254,0.3265555495410221,0.2556798118766888,0.266861318181882,0.4212767993676598,-0.06467604513045655
4.754754754754755,open_palm,0.3375882434171589,0.135770885994885,0.37609122351401836,0.33538950245147947,0.39251270384996567,0.48150067174823535,0.15398928151585306,0.5511103327762648
4.764764764764765,fist,0.7630637670701808,0.5439636875622931,0.29155153261195477,0.5296557625570061,0.5999346680777504,0.59690319852065,0.5930558379329475,0.4824548690225428
4.774774774774775,open_palm,0.1026413288293831,0.26338465723395643,0.40826573860217324,0.07919793326501753,0.22440320477329745,0.23608869706494273,0.4035322263138933,0.5631824096842473
4.784784784784785,wrist_extension,0.43616520445636475,0.40235333166260384,0.39021008368510574,0.36459725351394223,0.0340089217572489,0.2001534086442563,0.37183437745258635,0.4889440411187892
4.794794794794795,wrist_extension,0.40265945026043437,0.5449211703331797,0.24215375388488017,0.4917669766988103,0.5350216080404933,0.2507402229665495,0.3498553330499839,0.3345685309395668
4.804804804804805,fist,0.5409917765195345,0.5912363265685413,0.3530052805510918,0.583165363038517,0.5104147261082201,0.33924669261170226,0.7354366284005682,0.558086532028871
4.814814814814815,open_palm,0.32102652583722247,0.053170228758336546,0.513643019271885,0.2069922704829955,0.4068992192461878,0.6187430773588429,0.4916822550864941,0.1304810358750756
4.824824824824825,rest,0.05268459722011831,-0.002432424441074636,-0.12023111806251746,-0.12450146071198176,-0.16016848388781657,-0.008101880431428848,-0.013807260128970829,-0.09843643746219527
4.834834834834835,wrist_extension,0.29905716254211034,0.6315487766466867,0.34836089346873345,0.49183245358611566,0.48109780593532947,0.44376077027563043,0.3892956566370953,0.3298615862628932
4.844844844844845,open_palm,0.3767504342177923,0.1896137527388219,0.29872672116275667,0.2830430471166124,0.4938184263280032,0.2688807442075599,0.38754713215759995,0.33750208620191724
4.854854854854855,wrist_extension,0.586156259050187,0.3720420876143081,0.2981214089862563,0.161576654591641,0.21290215218279812,0.46402569905716057,0.3180261760029341,0.42650957581315135
4.864864864864865,open_palm,0.32884827367271663,0.2987909854945565,0.3952630105619497,0.27202837592479573,0.4026915243606101,0.08712069797037249,0.22098891069805346,0.38957160754798736
4.874874874874875,fist,0.7281793664091751,0.45040355584265734,0.4523559234965425,0.5743370288854777,0.3431446873486234,0.5245461359335939,0.5796451137518986,0.4873687552368182
4.884884884884885,wrist_extension,0.4577566860959764,0.2402647064861186,0.42693082955010664,0.058442042327517096,0.3575290722400999,0.25174015819453566,0.66257493862844,0.33593777216193255
4.894894894894895,wrist_extension,0.4014010580790526,0.28049515184555746,0.4622785572895426,0.3771427950011023,0.5798125530548133,0.1395162204123282,0.22432948054370272,0.21379122233393177
4.904904904904905,wrist_flexion,0.44677572758589745,0.18501609116029877,0.36968383129611543,0.3801204363891462,0.4267095352817452,0.4673368763236551,0.4243541423659079,0.5628743755659159
4.914914914914915,open_palm,0.3871945035551447,0.165348772632225,0.3091701575491165,0.2065945108357871,0.08413705293435818,0.20441182949242448,0.02355362363545728,0.2104221831623056
4.924924924924925,open_palm,0.622710701273052,0.15096646809216152,0.6609165446338204,0.26315257934508357,0.31324967930249126,0.44176024852460966,0.3619861544264801,0.186882416228779
4.934934934934935,fist,0.4187110740904644,0.5767771423831242,0.5682476039615025,0.5819263185794745,0.6593257876387503,0.5632372342776688,0.33564029533090944,0.413718385123701
4.944944944944945,wrist_flexion,0.365307027213781,0.47454425436868086,0.4160733480086948,0.2991154228843338,0.461669183295468,0.5461668371018318,0.3174145051502003,0.5972891235105684
4.954954954954955,open_palm,0.46238833225002324,0.292117391021856,0.3855706810032266,0.19844236389131847,0.17729436507891227,0.3128799252282983,0.3198752075413707,0.3894879785759192
4.964964964964965,wrist_extension,0.3006628931069523,0.20793214011365274,0.3806408270145911,0.4433274302152235,0.4803151434835501,0.5611395963708883,0.25782495807985595,0.3903806541905883
4.974974974974975,open_palm,0.49614772992200384,0.1535317590636696,0.20735047154099526,0.4959550568969606,0.13716855191393368,0.25567707111485766,0.10306322444097682,0.3901999742557265
4.984984984984985,wrist_extension,0.3321710416991188,0.3349315321964747,0.17211946020092075,-0.063812796045178,0.5000337480787752,0.37109770792991786,0.4339374168727861,0.41645618819550184
4.994994994994995,rest,0.10488778845586588,0.10790339608140057,-0.2783323559021251,0.04684937644084781,-0.20451872251698436,0.09828515355521511,-0.09824826595911468,-0.049606253866714606
5.005005005005005,open_palm,0.25540084581705363,0.10807063125601285,0.25096074754826153,0.35398846810828727,0.5492680830444112,0.4277258905312906,0.1784659319719571,0.26781379456306287
5.015015015015015,open_palm,0.2327656505994209,0.2791984619322485,0.20839268582311754,0.46178160277294805,0.42269150179620574,0.2678760429376078,0.20432274493090288,0.3850362598591365
5.025025025025025,wrist_flexion,0.49343622493119677,0.18326646792151757,0.4513499874632116,0.6537965399094994,0.6329714591230519,0.7400396669704976,0.3566768480914728,0.45742598042830684
5.035035035035035,rest,0.11414791267990279,0.09852246192075684,-0.029514812328380713,0.029250996518366337,-0.12497405937810557,0.12822792207266345,0.09543086131205866,0.005991660899549012
5.045045045045045,rest,-0.04085494500913281,-0.02203556217629329,-0.0514515161514766,0.035439765083774534,-0.035474319573791324,0.13434852049920917,-0.07455464835377132,-0.014788068523922669
5.055055055055055,wrist_flexion,0.5830409738985673,0.41454858535977135,0.3994906675861813,0.2627249457670254,0.5834665805902166,0.3266065303703191,0.09676844262346615,0.19739911483262051
5.065065065065065,wrist_extension,0.29059039018868915,0.2479690935198472,0.5402562664408137,0.3497257957151161,0.4809257185909934,0.49429631170767246,0.445279148252775,0.510873476519456
5.075075075075075,fist,0.27678510353318303,0.2077299879643134,0.365426311516433,0.2705398282428142,0.5075129467612988,0.29744054143101295,0.38557768013859894,0.46898486857877686
5.085085085085085,open_palm,0.2716362954924968,0.27025178905056035,0.5131574056768509,0.4538505673881779,0.2920688205758658,0.36083935069572803,0.3609123931170807,0.04641221460530501
5.095095095095095,wrist_extension,0.4029682756716232,0.29184153487718517,0.30841407003464366,0.3274939124699156,0.28200089177081383,0.29519455728438965,0.24214354831799936,0.3129688525556418
5.105105105105105,fist,0.6229965274800223,0.3260760093170269,0.3662321906433969,0.6295902157628974,0.5294847962721133,0.5727014153113024,0.15748519814545553,0.5574764672495336
5.115115115115115,wrist_flexion,0.5009332094049495,0.7464107866439691,0.4848800615568261,0.25820187287860497,0.4179792480438835,0.12175303235208401,0.33310714888984105,0.4279997577830146
5.125125125125125,rest,-0.014197681454249664,-0.08919996197569845,-0.057338987960257076,-0.169143157474903,-0.20445542384973484,0.17629804772988186,-0.018000392068771045,0.02551219026969566
5.135135135135135,rest,-0.01115148809672864,0.14712486850762357,-0.028781799068342773,-0.03145859798355423,-0.13049558379521373,0.09943051406265468,0.017271090222354707,-0.1956910272960811
5.145145145145145,wrist_extension,0.14684566357097667,0.4950167414484955,0.3521966195228544,0.5822379444253017,0.492122529258737,0.4433618568234273,0.17851753119124175,0.27316328258670103
5.155155155155155,fist,0.40705750760605136,0.5370901117726323,0.4884031565182192,0.5542684053946041,0.31975505140116833,0.4887093420163541,0.537007201898928,0.3502811327747804
5.165165165165165,rest,0.03630723660050974,0.005965578087644145,-0.0630509248488529,-0.0035917613620969017,-0.0271981360709827,0.01906521317230872,0.11171708487726534,-0.09113246598998291
5.175175175175175,wrist_flexion,0.408325723554531,0.5776537640925102,0.3467243950117076,0.3221832137264714,0.4000749767890718,0.32107888999162737,0.2910083158947794,0.47556810972212504
5.185185185185185,fist,0.4580355095123933,0.6191081075716282,0.8580169726629991,0.7157450225941241,0.587611826959587,0.6034507728675302,0.4333399003218887,0.7326779357279823
5.195195195195195,fist,0.5618875874241214,0.34771593122406824,0.4753331240713652,0.46272445701276227,0.33444636600962097,0.5906444037077704,0.3131123467052448,0.5502648779155354
5.205205205205205,fist,0.7323681368782031,0.24577308153473298,0.41989654778032864,0.3411324934099703,0.6059337575783907,0.41879520894116656,0.4966984606637055,0.4860510881371854
5.215215215215215,open_palm,0.11015566266768251,0.45665448602025027,0.07048680703699804,0.605343549725753,0.10219976024136265,0.16815209053334795,0.24357434375178538,0.25580321005177736
5.225225225225225,rest,-0.14188549628627475,-0.10552612164355624,-0.10066514416712019,0.064734460690392,0.007906845899414502,-0.10906926649107446,0.06736495543574399,0.08172795932299359
5.235235235235235,rest,-0.06665383558944231,-0.2631125665216422,-0.06481306766016658,0.1346634251707049,0.02255622200857181,0.25099554817030156,0.06637283469775862,-0.05192217946573211
5.245245245245245,open_palm,0.158518320612448,0.335108617866979,0.25428130132653126,0.2790779865023925,0.3764875699624907,0.36254386584984377,0.1376072937013975,0.1740292207020366
5.255255255255255,rest,-0.1320529434580839,-0.07111364720853369,0.027375951781156108,-0.027286544361277733,0.054995539709340915,0.05844119070146342,-0.010846330975034547,0.09366354831852514
5.265265265265265,wrist_flexion,0.47794263461224856,0.2167753199491687,0.30406449278942044,0.1897445135990094,0.1930959253140787,0.26998247001119774,0.550115054591344,0.4706429080769495
5.275275275275275,wrist_extension,0.2705621626869341,0.5342011583307659,0.27979488233336997,0.24415079949092527,0.2778103243954081,0.29302135241469973,0.40388617554962736,0.5121136715013141
5.285285285285285,wrist_flexion,0.19422748563527625,0.3955772282145661,0.56180015650898,0.5373589399290781,0.24870295712943996,0.36006425706026907,0.2555888962038605,0.20975523611771743
5.295295295295295,fist,0.7677793903330177,0.42080008385199946,0.34107017863029876,0.34642972342580575,0.5212856904019834,0.5724612885631888,0.3819217068408345,0.7311402337549076
5.305305305305305,rest,0.021625569565765546,0.014781909732395362,-0.0401510190900202,-0.03667303786292597,0.012666281148584438,0.07470300043325968,-0.005122387730886964,0.040387440975499844
5.315315315315315,fist,0.6342185062726085,0.43888366792354905,0.49274523366924383,0.5591142214470166,0.6118281170189274,0.36988123643700577,0.7125313124064482,0.5131998438096842
5.325325325325325,open_palm,0.3168163042411021,0.3358488537560713,0.21892581638432557,0.03822455786365743,0.6465023296814374,0.16761512130131329,0.41203159556902685,0.24988854555855125
5.335335335335335,rest,-0.10707600503934789,0.1033591390938367,-0.011974039572466696,0.03621196818034541,-0.09147453092664055,0.00753294069724164,0.13613882877961078,-0.005461921578767318
5.345345345345345,fist,0.6222145817233458,0.531506218021658,0.731743220098884,0.2425005199090393,0.5373289877378271,0.44176825849208656,0.6671958981980062,0.3799818412034301
5.355355355355355,rest,0.010317202888748035,-0.037601085002635884,0.01512785406920415,-0.032865142661101375,-0.13941864388476616,-0.06491399693161777,0.15344251064533784,0.20312938701199135
5.365365365365365,rest,0.10879317437349421,0.003986445983690005,0.04163230230773851,-0.10020844883807359,0.07081461899049321,0.04552612688925272,0.029686660749626222,-0.17249309304038168
5.375375375375375,wrist_flexion,0.3626203312154854,0.5239552122409107,0.39725634188119424,0.43823193928425364,0.49376430684627665,0.35666761347043247,0.36830738395708756,0.3326865940241141
5.385385385385385,rest,0.009193624366869392,0.11074043592198833,-0.10271808902366696,0.10551425897241096,0.05968677181213296,-0.013929795014494196,0.014807929500134008,-0.00808823425729852
5.395395395395395,wrist_flexion,0.3085691794287534,0.24707681046321345,0.430506036992771,0.41151474299681123,0.5428199493388637,0.4217328042383415,0.33331115573707953,0.34506799675813743
5.405405405405405,open_palm,0.2634313965231502,0.30883438756402254,0.30345107523766374,0.4661532985323733,0.6341012967365663,0.36980994631815256,0.32665046162067596,0.26318835738813384
5.415415415415415,wrist_flexion,0.506205082345097,0.3959233178827197,0.5153868362568703,0.4498756835615624,0.2924098481488492,0.4646223661428439,0.18265394403682902,0.2905520026097883
5.425425425425425,rest,0.04265398389154249,0.04659993140456736,-0.005868002971575524,-0.06105397012641278,0.08308214811019121,-0.050864515168284274,0.0500490845838926,-0.05767402636422583
5.435435435435435,wrist_extension,0.2542751926517167,0.7332523461267049,0.2869001611307952,0.4974600891166555,0.292614399913606,0.6869271002653439,0.31358374179524334,0.5088288294558974
5.445445445445445,rest,0.03790594354956805,-0.024683576401096613,-0.06562681632535233,-0.1528958271681332,-0.006369304800171053,0.15632916197028734,0.09430474237073867,0.05984070272014727
5.455455455455455,rest,0.04837292319612113,-0.08359525723861631,0.13617814809321035,-0.021206879561109577,-0.0779684429870758,0.04006194864747967,0.18225115553592308,-0.03645403686087375
5.465465465465465,fist,0.6676207099648933,0.5207746486950298,0.35584425460287716,0.43132421079026834,0.5892653608465941,0.2996036990752703,0.557326429020433,0.4986373815667321
5.475475475475475,open_palm,0.18597088967512343,0.047950731907208166,0.6097923403385527,0.21919400932379934,0.3468811159214043,0.2660237274059867,0.06321724796797554,0.22520169066777682
5.485485485485485,fist,0.4578630667748758,0.5188538458626367,0.4098498698370611,0.4870832787227952,0.2782834442385008,0.5216540195837727,0.4467605011333769,0.2546708202576343
5.495495495495495,open_palm,-0.00942397344300766,0.24525314006626486,0.40464725508085964,0.28506835256068924,0.17864267353720903,0.3473438688509458,0.45186497840043693,0.5417079351138812
5.505505505505505,wrist_flexion,0.47817697131643927,0.31217956315063505,0.5566970128821881,0.5782480156634696,0.8088905560824249,0.38193137231575075,0.4596264248904204,0.37674084680685677
5.515515515515515,fist,0.7359209287502668,0.5711580799116117,0.67294094566065,0.35526735355395356,0.5726597380350251,0.5085655999214054,0.6224291378444201,0.3501790378221482
5.525525525525525,rest,0.21007042184214175,0.11015101547173067,-0.004736780193431925,0.05064254837372831,-0.16234559421734818,-0.05397980797443326,0.0663504253167164,-0.3941029296656441
5.535535535535535,wrist_flexion,0.5277290367654155,0.45192892420644687,0.39374807620624197,0.3418090288829486,0.4387547498486085,0.39857473807147353,0.32724026956369734,0.47484070803809064
5.545545545545545,wrist_extension,0.4277649314206755,0.23090469343122097,0.5752322071993101,0.45155667612297273,0.25509836249975476,0.39303274621015566,-0.009841664665900418,0.30875029079016447
5.555555555555555,open_palm,0.4969914147010685,0.5469202166756992,-0.06094309813187898,0.26935250399503297,0.1185132264082342,0.1644651259450466,0.474422661837054,0.4038147860530604
5.565565565565565,fist,0.5478824123751718,0.6330806606949774,0.4324662127216484,0.25519345922582115,0.6710338448563115,0.49124739464161726,0.7821442206697893,0.5294861841274818
5.575575575575575,rest,0.17033117864202363,0.005533767354499862,-0.033231916716272396,0.016191947798445787,0.05622236274529479,0.12923673802311234,-0.09777198130362241,0.050151705535181716
5.585585585585585,wrist_flexion,0.5017379731542219,0.14488260017785473,0.24479907455770075,0.25401913186056213,0.4324076896962187,0.44152368984679596,0.40895059266884326,0.3127239066097027
5.595595595595595,fist,0.5414661645439464,0.45784186949680383,0.5065646704487008,0.6898165992685513,0.5391535731752508,0.44798064165782997,0.716279434078019,0.43513025288838597
5.605605605605605,wrist_flexion,0.4338880953975177,0.4268667982868607,0.31920882210512636,0.390107064630088,0.24328267698338624,0.3540796678473121,0.47975335635799715,0.27344189912921807
5.615615615615615,wrist_flexion,0.5843414909400966,0.615166114734697,0.33090062164240586,0.3009745631843852,0.34038603453520333,0.5888466547271468,0.19413212690741283,0.22292890746162597
5.625625625625625,wrist_flexion,0.41977576114658605,0.3585962522996892,0.560065535292134,0.600498018741148,0.5467007419391902,0.4638486794785859,0.3510470234651102,0.3467575701851324
5.635635635635635,fist,0.5237568827051743,0.5661599333075438,0.5065365952788603,0.4191062197573058,0.4498157082408524,0.2756404392867012,0.7866709275799315,0.7327559757634889
5.645645645645645,wrist_extension,0.4634777187904502,0.3224682690061652,0.3864841028064757,0.3220557992175586,0.030519434059061108,0.3690140799358725,0.4565424867390318,0.2997435060037213
5.655655655655655,wrist_flexion,0.6247394889002615,0.22760905598669245,0.3098847858206132,0.3703986129187683,0.17842604574690124,0.3408238614761647,0.377401161873881,0.7076027815417046
5.665665665665665,open_palm,0.3368899339750331,0.20647956691167768,0.2075958087021067,0.45236893481792534,0.49044816416099535,0.5403220448275572,0.15590209093556479,0.22531224863614435
5.675675675675675,wrist_extension,0.2941415844438978,0.2862587514287938,0.4508811135544156,0.4381520921151073,0.10837376393121954,0.4874402178155851,0.39192922666306573,0.16572714864026805
5.685685685685685,wrist_extension,0.23406089685826548,0.2543592176398331,0.3922790758901107,0.4099374433592874,0.3195115995735318,0.18627500538342395,0.14581997351141981,0.32121142206531317
5.6956956956956954,wrist_flexion,0.192636595158856,0.5576820587879039,0.33266638566093454,0.2673319647053462,0.4929166247236335,0.3450072569499226,0.5794276749404321,0.4040358052575477
5.7057057057057055,wrist_flexion,0.5539400443357461,0.1671271444038962,0.45039924704000983,0.2439777367216352,0.42018847442715895,0.39282728018290597,0.51175476671269,0.3227056401337346
5.7157157157157155,wrist_flexion,0.24007515147929778,0.46802854272545763,0.38826034046716207,0.38596702996152,0.2620091837855312,0.09046761636363271,0.3366011137016714,0.26966511262129267
5.7257257257257255,wrist_extension,0.2308592097134745,0.08574400080165638,0.2666119682789179,0.5496511430399803,0.16145904917245313,0.2852596475949887,0.1326820504795659,0.29693143252629567
5.7357357357357355,rest,0.020040803028798432,0.002391283092080608,0.01935184154269729,-0.03225661510183649,-0.05233733808635959,0.16338385152363835,0.13425674999810008,-0.03432732800565618
5.7457457457457455,wrist_extension,0.43009997569748476,0.24510044356857336,0.22927948602923215,0.3801283720622696,0.416553915722192,0.2623655049963465,0.3968062866473999,0.35748909699254416
5.7557557557557555,open_palm,0.48697421721431505,0.395068267481428,0.43428788828865816,0.29046197359264747,0.2873895289327621,-0.027253337639136982,0.18348221080928365,0.16017995154806894
5.7657657657657655,rest,-0.14400543996535584,-0.11605956189066247,0.1588532587570809,0.05231842061116648,-0.13773040869177097,-0.13672184550440108,0.06125063621413856,-0.08775679176965995
5.7757757757757755,open_palm,0.20230171736491,0.4625364503908008,0.2711275555148993,0.36264991003025676,0.3168543189570198,0.5914973593146019,0.36212903123966,0.253228740733305
5.7857857857857855,wrist_extension,0.18024797073479848,0.40878076787933365,0.571844052830344,0.4220656475776873,0.3403092264509907,0.3083139723866561,0.2996591371133769,0.22258773314123576
5.7957957957957955,fist,0.475355310393587,0.7448037359515757,0.5208132084730244,0.4463320229589542,0.4237505418812184,0.6047256820757381,0.46760116157263476,0.45813561904424277
5.8058058058058055,wrist_extension,0.33539040640531204,0.2937983152549811,0.1582976658762917,0.3279557402981247,0.3455124861564354,0.3466096606147127,0.2366585251373658,0.5035201828177758
5.8158158158158155,fist,0.32008964435869663,0.39030461096980085,0.5363318747058559,0.5492548497421695,0.5440047029604318,0.5588133972170818,0.7141533469625361,0.5183511695305064
5.8258258258258255,rest,0.04780665128476993,0.29824355685935194,-0.0677632551064473,-0.12322871592984364,0.05439235775445518,0.08794458929366811,0.04675055240444726,0.0031137343560112053
5.8358358358358355,fist,0.3009601139151237,0.595614015740009,0.4899156047361693,0.5439122166681952,0.3596956438900233,0.4985788217936521,0.3758453035604947,0.5561005071653949
5.8458458458458455,fist,0.4309901886497739,0.552267123968895,0.22008317548793926,0.5017333170097218,0.38330962808782787,0.5946666445473994,0.5888678600135299,0.5607493371395782
5.8558558558558556,open_palm,0.3065993806669344,0.37667062592905964,0.3242172364957222,0.32500200718341576,0.24142718028322305,-0.11639904547140563,0.6482318932188798,0.2540159622162423
5.865865865865866,open_palm,0.3842575996270998,0.09801694382013909,0.41014167784305383,0.3493041993615093,0.148541312504446,0.30441588766448874,0.34333041608770587,0.23502358803261136
5.875875875875876,wrist_flexion,0.41252013256481174,0.5034871783808803,0.3341714703838656,0.15553612614294932,0.7131597284263328,0.47799774536178236,0.5298492893729931,0.24936515353248406
5.885885885885886,wrist_flexion,0.3351450492559574,0.4270788772311975,0.5044384532925715,0.3935418120125156,0.09725486849668541,0.4973005838404798,0.3122258795145407,0.32575354659368644
5.895895895895896,fist,0.40129144310054665,0.7256060969787393,0.5809111925381976,0.6212835524981557,0.49960636979954776,0.457738511503426,0.3581793287314875,0.4142975180108262
5.905905905905906,fist,0.5759427527077735,0.5042958187344982,0.29034108569998995,0.3826754469850367,0.7685190065561832,0.38786762176206435,0.4173576332979376,0.6587604533808276
5.915915915915916,rest,0.03410278959196582,0.18634476719184626,0.21070243563134783,0.14263352196212595,0.03507416492763293,-0.0078030223822796565,-0.0039276517253766996,0.16330590263727687
5.925925925925926,rest,0.0508722059900483,-0.05039803054194441,-0.28142659294171274,0.01043814681144322,0.18543215624202813,0.009059313496595797,0.08200340039753451,-0.015357122957140042
5.935935935935936,wrist_flexion,0.23083024048872347,0.3777202561873524,0.4765434704382183,0.34236874543011947,0.3184325516252827,0.4197007660204709,0.4868513300305039,0.5775033671373964
5.945945945945946,wrist_flexion,0.3325400144135407,0.287032693243627,0.3924375618342837,0.32776468960651145,0.5295067921296932,0.44090723694682193,0.429920488996532,0.3817037320959829
5.955955955955956,fist,0.2644456165590247,0.18685262160805388,0.217154040029995,0.3579000305229624,0.46305826038080145,0.5810377511950551,0.29229509007794574,0.3493341648716808
5.965965965965966,open_palm,0.42458711389517834,0.4241991112092087,0.25743875574550024,0.09345136641714061,0.516671639059822,0.6055521375196999,0.1218894679673488,0.4248793886582183
5.975975975975976,rest,-0.14337182035122673,-0.056903844060792366,-0.07276265294272809,-0.08725483662769776,-0.07578282449920248,0.15878402124008512,-0.08403446859400693,0.014386071674764545
5.985985985985986,open_palm,0.008892379926158822,0.04785504001590357,0.42163304104035737,0.2565879183929119,0.12003765973544656,0.2772976822224486,0.4561003950129217,0.27899830901647227
5.995995995995996,wrist_flexion,0.6648509259385659,0.608727067941368,0.0404162716883818,0.5591002550896998,0.6043024406921373,0.6225396292273784,0.5772494310718327,0.4422553689387365
6.006006006006006,wrist_flexion,0.228665437461637,0.477757136874776,0.5520262147726023,0.3934267274939426,0.27554135627125387,0.3442899468229981,0.48614864488498377,0.4886931479449394
6.016016016016016,fist,0.3594627302202547,0.3384668599351611,0.28223878897660665,0.375486896206547,0.3284371183956608,0.4561362328705954,0.7577955182569334,0.4803874646818951
6.026026026026026,rest,-0.00517551113459647,0.07693838243427467,0.1228241961445963,-0.06774213386930518,-0.053231970468781524,-0.04174810359898654,-0.071904950050387,-0.012735017594948076
6.036036036036036,fist,0.931673772513436,0.5938795102007118,0.4798580258613027,0.6400541506160253,0.5808506403450014,0.6035194935463453,0.4795240407144006,0.4622223083555971
6.046046046046046,open_palm,0.09546013070017881,0.08274256031339107,0.3153636191594033,0.29365881803946825,0.24895316166766002,0.40173492650971815,0.23376494481828053,0.21550685040957765
6.056056056056056,rest,-0.10211501928405714,-0.04213641232479985,-0.0018540722413226446,0.14752082877153572,-0.0023178164515277174,0.04718256952896807,-0.10243440131038042,-0.11679310658734857
6.066066066066066,fist,0.7356366456819554,0.44780878491367826,0.40457790891459955,0.3641404921807111,0.2970877848028075,0.32440562493964475,0.2835604643312194,0.584155445627457
6.076076076076076,wrist_flexion,0.5307589794798864,0.47129170587138014,0.1128790519052787,0.47490441387965754,0.6945293027319487,0.23081970312115194,0.4805722632732026,0.5523888346125848
6.086086086086086,wrist_extension,0.46006556660203857,0.4985298700820928,0.07053032909482407,0.29403990875432484,0.3675378671271345,0.37430645676206575,0.41262125440990643,0.3004552478604892
6.096096096096096,rest,0.17595740419563496,0.07563729827808496,0.11980376916932199,0.07081079372271952,-0.050594469837971195,0.00013045456488123392,-0.033006312911272484,-0.18789230047181074
6.106106106106106,fist,0.45851171895886644,0.7288080525150513,0.42349493470153343,0.5908311927789177,0.563534341039906,0.4607565230394505,0.4183239908897415,0.4399607695994414
6.116116116116116,open_palm,-0.05359437355983612,0.14665389189135314,0.5448323622741089,0.4605240256565605,0.5451126831684099,0.15481626559057846,0.39400094141497805,0.0684988844927952
6.126126126126126,open_palm,0.32968191347890385,0.2872767342319392,0.42949954918471434,-0.011886223430928294,0.2763255071553484,0.6620820579655236,0.2215517196481094,0.2713774468899475
6.136136136136136,open_palm,0.21776783016497286,0.4966551894831229,0.22773318352908162,0.23295748292728818,0.1224107313030833,0.3237109639077752,0.31220012583529066,0.6316314391736984
6.146146146146146,rest,-0.14714963852657606,0.08253782483172517,-0.009891856176339194,0.04005586710915299,-0.0034000371186951868,-0.046912131200196217,-0.1025564717042568,0.06438675875563671
6.156156156156156,wrist_flexion,0.3734329211496823,0.2108273354055097,0.5005753398464144,0.2566761126662366,0.1424333024736471,0.4122116615608682,0.5401125605114645,0.6914954506299784
6.166166166166166,fist,0.591148784821357,0.6167461416440658,0.39551889265307594,0.3076630806173326,0.3632010814515162,0.27692701248786633,0.46905618286912876,0.6450345122224017
6.176176176176176,wrist_extension,0.40108078023610166,0.12072964359073027,0.1928148944454749,0.26623740872119006,0.5100177401388218,0.4818491568838687,0.35209151747151685,0.14000825401536068
6.186186186186186,open_palm,0.3077412138732895,0.20575845051654956,0.32494093427277687,0.18836752403781015,0.5325701240492262,0.16404264774296007,0.20192713466860213,0.3773772153508217
6.196196196196196,open_palm,0.4312135164513319,0.26563193043276256,0.5425394594287469,0.16781934505066254,0.4038664503446763,0.2994141573670898,0.07316400334119855,0.3519790880199629
6.206206206206206,rest,0.0964518077128303,-0.15685398338412074,-0.056035233065175695,-0.010816777557147576,0.060445280150146254,-0.05732745632291253,-0.0222140569547465,-0.07855865437046658
6.216216216216216,wrist_flexion,0.4372252086658826,0.40657289493868237,0.4334152140533781,0.43191410475458963,0.30671778449674275,0.3345581012113218,0.7476348015860437,0.4273061362641045
6.226226226226226,rest,-0.034617906009331637,-0.12395117426922789,-0.0381749752052227,0.019258399018229264,0.005634382509309433,0.019053113793296366,-0.036857347848804976,-0.016432701303608327
6.236236236236236,wrist_extension,0.5361278934508497,0.3699535313609559,0.5059902174640549,0.351335167709771,0.4427802245377477,0.26751190852311957,0.24393641761869453,0.39228904998800496
6.246246246246246,wrist_flexion,0.3447648565120706,0.3557779238686862,0.32227835999626553,0.4107269371820168,0.3985669305498417,0.5282907971724478,0.4323538974398189,0.44843844807033445
6.256256256256256,fist,0.7400631381379079,0.5990073652224741,0.5739091968327958,0.647616407156579,0.4388789825488774,0.7267580500080457,0.1750848900728731,0.5087701410904565
6.266266266266266,fist,0.02060081081770898,0.5130242633239069,0.5097631839528363,0.4255089230810641,0.33123377453214353,0.5562213196213133,0.21222331246534393,0.37895501792440134
6.276276276276276,rest,0.14423529670770044,-0.0077345597625403245,-0.09137476750916972,0.08881228426451114,0.024195548724095794,0.03507709548598508,0.0040358040773052955,0.1246575521176676
6.286286286286286,open_palm,0.09366840950078442,0.4400440184369051,0.30005852124471777,-0.021954221085384057,0.2314555766594903,0.5122946069373875,0.3541169057346145,0.2580674990618501
6.296296296296296,open_palm,0.3538667873687988,0.1026599534010856,0.24371150110867876,0.2862428291443193,0.222546423077299,0.19830676146238796,0.39426581675725836,0.5555236037722135
6.306306306306306,wrist_flexion,0.4797692089896536,0.5118141761375933,0.41519675732213945,0.24119339047849284,0.30152634361070585,0.4874384068744851,0.10975334102481407,0.46344700755448776
6.316316316316316,wrist_extension,0.3199449465900964,0.2809984153384448,0.3160854542449041,0.46513252819894857,0.2661202728372695,0.2171833502933547,0.43350231733151395,0.240844402720839
6.326326326326326,rest,-0.06707366852256756,0.047877033113259186,0.21890009412007727,-0.12501664063339413,0.03660599336452066,-0.12267159289072312,0.06989499311259421,-0.10699093739124202
6.336336336336336,rest,0.03493377382752694,-0.0036895613203526156,-0.02322008381143173,-0.08458416955797926,-0.006561779644579185,-0.01843465351372943,-0.1284136126003318,-0.017397004313146485
6.346346346346346,wrist_extension,0.39658838540420316,0.3560178560944756,0.29917663410996,0.22083098489670613,0.4074118677129995,0.5416514606287133,0.47933783820053516,0.5049329544141828
6.356356356356356,open_palm,0.1609253084759018,0.11282572035608496,0.4126503970561354,0.4695342546244048,0.02810805507110037,0.1851493916801979,0.48353292026952366,0.41614104657252965
6.366366366366366,fist,0.7918997869254196,0.4224113371145274,0.43832914784240223,0.3545001608496193,0.5289870607215843,0.36711882463835777,0.5968810874724528,0.33440525221842027
6.376376376376376,wrist_flexion,0.518802598397921,0.4884538879423181,0.38826652462192757,0.1876025082852889,0.4323975836828094,0.3091316742580491,0.595723192295198,0.6311919195697816
6.386386386386386,wrist_flexion,0.5752163537438161,0.48443356098174395,0.371991674582132,0.3786992858458026,0.31619717381689016,0.11763177848619502,0.4993459517974148,0.12615927085888454
6.396396396396396,fist,0.6651783264482478,0.5398606895770977,0.5846332313471255,0.435165698839852,0.3460887396316828,0.4103219214594451,0.25818678247484417,0.6473774189509875
6.406406406406406,fist,0.3486881479943588,0.3613579671565792,0.2672370402102209,0.5644536744222305,0.5061571740364317,0.7046001635541447,0.3007847082597576,0.5276002480800001
6.416416416416417,wrist_extension,0.3471492617561693,0.17360312970104047,0.39133281924504,0.3352783645929684,0.47818570524354004,0.5008969767343898,0.3452934166650007,0.06638389492155652
6.426426426426427,fist,0.58134117897385,0.7216099222148149,0.44357732763299584,0.4042180346055643,0.3969906222608743,0.5824985765105891,0.3864994348022205,0.9128709481144763
6.436436436436437,open_palm,0.2660247564049552,0.2977575441843711,0.25345961298706055,0.01205508739564367,0.5667274907129491,0.47506814151049037,0.19469838478089252,0.36925277996121797
6.446446446446447,open_palm,0.012770284385730968,0.4019633198520626,0.17678635093782266,0.4547005755423841,0.2759396061581361,0.3488694735602951,0.40845573191264234,0.3175553255150688
6.456456456456457,fist,0.53232937675817,0.5987388629438775,0.5730490909337711,0.6463687715819498,0.6312029465772356,0.24860161123870916,0.5328781115854619,0.39014983894665156
